id,attr_time,attr_x,attr_y,attr_z
1,1436799258005,-0.60812724,9.552865,-0.4405331
2,1436799258028,-0.62249243,9.56723,-0.44891283
3,1436799258044,-0.6607997,9.553463,-0.49200845
4,1436799258064,-0.65780693,9.52174,-0.5422867
5,1436799258084,-0.6338649,9.551069,-0.5201403
6,1436799258108,-0.6087258,9.582193,-0.4902128
7,1436799258128,-0.62728083,9.599552,-0.4297592
8,1436799258148,-0.62368953,9.5809965,-0.45489833
9,1436799258167,-0.61052144,9.529521,-0.51116204
10,1436799258188,-0.5847838,9.527725,-0.55964464
11,1436799258206,-0.5781997,9.569026,-0.54527944
12,1436799258228,-0.6314707,9.5570545,-0.4818331
13,1436799258268,-0.6667852,9.578004,-0.46627077
14,1436799258269,-0.65900403,9.554661,-0.48602295
15,1436799258285,-0.6548142,9.542689,-0.55485624
16,1436799258305,-0.6739678,9.552865,-0.57520694
17,1436799258327,-0.6895301,9.595362,-0.5141548
18,1436799258345,-0.6727707,9.606734,-0.46028528
19,1436799258364,-0.62488663,9.5732155,-0.46447513
20,1436799258384,-0.57161564,9.501988,-0.51954174
21,1436799258407,-0.5734113,9.516952,-0.62847793
22,1436799258429,-0.58418524,9.568427,-0.62728083
23,1436799258450,-0.6087258,9.576208,-0.54527944
24,1436799258465,-0.62488663,9.58818,-0.44891283
25,1436799258484,-0.5979519,9.57142,-0.48362875
26,1436799258505,-0.54527944,9.533711,-0.5434838
27,1436799258525,-0.58418524,9.516354,-0.57999533
28,1436799258546,-0.6242881,9.544485,-0.57640404
29,1436799258566,-0.6787562,9.582792,-0.49440265
30,1436799258639,-0.6362591,9.578603,-0.47165772
31,1436799258640,-0.5758055,9.539098,-0.52852005
32,1436799258641,-0.5374983,9.530719,-0.5883751
33,1436799258648,-0.5327099,9.526528,-0.5955577
34,1436799258667,-0.53809685,9.611523,-0.4961983
35,1436799258689,-0.59017074,9.595961,-0.4914099
36,1436799258705,-0.62009823,9.57142,-0.50637364
37,1436799258724,-0.61171854,9.561843,-0.57520694
38,1436799258748,-0.5847838,9.551667,-0.533907
39,1436799258765,-0.55725044,9.541492,-0.47524905
40,1436799258786,-0.5638345,9.547478,-0.46088383
41,1436799258806,-0.62608373,9.5570545,-0.46926352
42,1436799258827,-0.6853402,9.588778,-0.53929394
43,1436799258848,-0.6781576,9.586384,-0.56922144
44,1436799258868,-0.62847793,9.560646,-0.5201403
45,1436799258887,-0.65301853,9.533113,-0.53689975
46,1436799258906,-0.676362,9.502586,-0.55605334
47,1436799258928,-0.7044938,9.469068,-0.6123171
48,1436799258948,-0.74639237,9.450513,-0.65242
49,1436799258968,-0.75118077,9.509171,-0.6123171
50,1436799258987,-0.90381116,9.564238,-0.62608373
51,1436799259006,-1.0127473,9.607333,-0.57879823
52,1436799259095,-0.842759,9.64564,-0.53689975
53,1436799259096,-0.6027403,9.59177,-0.6452374
54,1436799259097,-0.46208093,9.534908,-0.6075287
55,1436799259098,-0.49440265,9.545084,-0.6691794
56,1436799259107,-0.44232875,9.570223,-0.62129533
57,1436799259128,-0.30107087,9.520543,-0.5470751
58,1436799259148,-0.21308395,9.420585,-0.6135142
59,1436799259168,-0.219668,9.394249,-0.60453594
60,1436799259188,-0.2765303,9.527725,-0.6398504
61,1436799259207,-0.427365,9.551069,-0.635062
62,1436799259226,-0.4758476,9.564836,-0.6218939
63,1436799259246,-0.30526072,9.5570545,-0.641646
64,1436799259268,-0.019153614,9.53012,-0.6218939
65,1436799259288,0.11133038,9.569026,-0.56982
66,1436799259308,0.17238252,9.569026,-0.4973954
67,1436799259326,0.08619126,9.609129,-0.44711718
68,1436799259354,-0.22804771,9.656414,-0.45968673
69,1436799259410,-0.45070848,9.561843,-0.4794389
70,1436799259422,-0.8194155,9.509171,-0.56203884
71,1436799259425,-0.9947908,9.60015,-0.5781997
72,1436799259426,-1.1575965,9.730036,-0.45609543
73,1436799259447,-1.1815386,9.668983,-0.27234045
74,1436799259470,-1.1007342,9.563639,-0.24540567
75,1436799259485,-1.0702082,9.5253315,-0.34237084
76,1436799259505,-1.0971429,9.512762,-0.51834464
77,1436799259527,-1.0851719,9.510367,-0.5919664
78,1436799259546,-1.0522517,9.522937,-0.521936
79,1436799259567,-0.95349085,9.55047,-0.5267244
80,1436799259587,-0.8948329,9.602545,-0.4297592
81,1436799259607,-0.8391677,9.60853,-0.4345476
82,1436799259627,-0.7553706,9.557653,-0.49679685
83,1436799259649,-0.6943185,9.502586,-0.5710171
84,1436799259669,-0.6392518,9.36073,-0.6919243
85,1436799259689,-0.557849,9.357738,-0.91099375
86,1436799259709,-0.36272156,9.54209,-0.81343
87,1436799259725,-0.1436521,9.67856,-0.6703765
88,1436799259749,-0.37349546,9.46847,-1.1456255
89,1436799259769,-0.320823,9.570822,-0.48841715
90,1436799259789,0.9864111,9.921572,0.020949265
91,1436799259809,0.12330139,9.841366,-0.8002619
92,1436799259826,-0.13706805,9.703101,-0.57281274
93,1436799259849,-0.10474633,9.586384,-0.23223756
94,1436799259866,-0.25498247,9.518747,-0.8343793
95,1436799259887,-0.4961983,9.279327,-1.0881647
96,1436799259906,-0.28670564,9.306262,-0.88286185
97,1436799259939,-0.26036942,9.534309,-0.7697359
98,1436799259955,-0.50637364,9.64983,-0.6386533
99,1436799259976,-0.97144735,9.581595,-1.0049661
100,1436799259985,-1.2455834,9.51336,-1.3551182
101,1436799260006,-1.234211,9.660604,-0.6703765
102,1436799260026,-1.6783354,9.695918,0.036511578
103,1436799260046,-1.7250223,9.744401,-0.047285482
104,1436799260073,-1.1677719,9.536704,-1.1563994
105,1436799260120,-0.43514615,9.335591,-1.1456255
106,1436799260133,0.035314474,9.324219,-0.694917
107,1436799260134,0.6979098,9.528923,-0.76315176
108,1436799260149,0.6087258,9.36911,-0.7751228
109,1436799260166,0.43394905,9.251794,-0.760159
110,1436799260186,0.3597288,9.372103,-1.2617443
111,1436799260211,0.49799395,9.719262,-1.1971009
112,1436799260227,0.66020113,9.636064,-1.039682
113,1436799260246,0.6434417,9.685144,-0.82719666
114,1436799260269,0.63206923,9.849746,-0.42437226
115,1436799260291,0.43514615,9.701904,-0.45429978
116,1436799260312,1.0582372,9.897031,-0.56203884
117,1436799260325,0.54408234,9.636662,-0.5279215
118,1436799260345,0.046088383,9.551667,-0.6368576
119,1436799260375,-0.40402153,9.668983,-0.6865373
120,1436799260385,-0.45010993,9.544485,-0.7146692
121,1436799260406,-0.4309563,9.498995,-0.5979519
122,1436799260425,-0.094570965,9.478046,-0.6476316
123,1436799260446,-0.10654198,9.60853,-0.7134721
124,1436799260466,0.23104046,9.701904,-0.760159
125,1436799260486,0.43993455,9.467272,-0.7763199
126,1436799260505,0.6440403,9.467871,-0.8098387
127,1436799260525,0.37469256,9.575011,-0.87807345
128,1436799260545,0.09876082,9.722853,-0.6392518
129,1436799260565,-0.13706805,9.66659,-0.41180268
130,1436799260585,-0.10534488,9.531916,-0.5093664
131,1436799260605,-0.061052144,9.551069,-0.6135142
132,1436799260625,-0.27473465,9.542689,-0.78050977
133,1436799260645,-0.3585317,9.5385,-0.6572084
134,1436799260665,-0.35254622,9.652225,-0.46686932
135,1436799260686,-0.43155485,9.623494,-0.6398504
136,1436799260705,-0.47345337,9.549872,-0.6715736
137,1436799260725,-0.4345476,9.586982,-0.57400984
138,1436799260746,-0.17298107,9.673772,-0.5746084
139,1436799260766,-0.017357962,9.495404,-0.7104794
140,1436799260788,-0.037110128,9.483433,-0.64942724
141,1436799260807,0.0712275,9.542689,-0.48722005
142,1436799260830,0.19871874,9.752182,-0.26396075
143,1436799260874,-0.08559271,9.391854,-0.66379243
144,1436799260875,-0.30466217,9.413403,-0.9139865
145,1436799260887,-0.10235212,9.542689,-0.48841715
146,1436799260906,-0.12210429,9.624092,-0.39205053
147,1436799260929,-0.1921347,9.640852,-0.5009867
148,1436799260946,-0.24121583,9.710283,-0.50158525
149,1436799260967,-0.26635495,9.601347,-0.58119243
150,1436799260988,-0.23822308,9.527725,-0.6823475
151,1436799261010,-0.2172738,9.513959,-0.6488287
152,1436799261027,-0.16639702,9.584588,-0.53809685
153,1436799261048,-0.14065935,9.650429,-0.5351041
154,1436799261070,-0.16101007,9.639056,-0.7068881
155,1436799261088,-0.17357962,9.591172,-0.7954735
156,1436799261111,-0.3286042,9.56723,-0.8050503
157,1436799261129,-0.40880993,9.64145,-0.748188
158,1436799261149,-0.3866636,9.578004,-0.6769605
159,1436799261170,-0.2813187,9.631873,-0.581791
160,1436799261191,0.029927522,9.63726,-0.19033903
161,1436799261211,-0.17238252,9.537901,-0.27114335
162,1436799261228,-0.12988544,9.508572,-0.59256494
163,1436799261248,0.12928689,9.5570545,-0.6596026
164,1436799261269,0.18914193,9.454702,-0.6679823
165,1436799261291,0.02633622,9.496002,-0.76434886
166,1436799261311,-0.037708677,9.475652,-0.7308301
167,1436799261330,-0.374094,9.793482,-0.4997896
168,1436799261350,-0.20649989,9.695918,-0.31902736
169,1436799261369,-0.2693477,9.720459,-0.5129577
170,1436799261390,-0.02813187,9.710283,-0.20171149
171,1436799261410,0.13467385,9.715671,-0.34356794
172,1436799261429,0.05207389,9.560646,-0.5638345
173,1436799261449,-0.030526072,9.399636,-0.8194155
174,1436799261469,-0.1921347,9.420585,-0.86011696
175,1436799261488,-0.24301147,9.530719,-0.6536171
176,1436799261508,-0.18555063,9.473856,-0.6039374
177,1436799261529,-0.27832595,9.479243,-0.6512229
178,1436799261594,-0.6368576,9.442732,-0.6278794
179,1436799261595,-0.46806642,9.785701,-0.45190558
180,1436799261596,-0.26515785,9.783307,-0.4854244
181,1436799261607,-0.079008654,9.5732155,-0.5482722
182,1436799261628,-0.1340753,9.523536,-0.6099229
183,1436799261648,-0.30765492,9.46847,-0.7140707
184,1436799261668,-0.30047232,9.4774475,-0.6859388
185,1436799261692,-0.46806642,9.566033,-0.623091
186,1436799261709,-0.48961425,9.610326,-0.6548142
187,1436799261729,-0.4842273,9.6923275,-0.62608373
188,1436799261748,-0.57760113,9.631873,-0.5907693
189,1436799261768,-0.25677812,9.671378,-0.5907693
190,1436799261791,-0.20051439,9.380483,-0.7457938
191,1436799261811,-0.1328782,9.421184,-0.770933
192,1436799261831,-0.02813187,9.633071,-0.53570265
193,1436799261851,0.076015905,9.804854,-0.46686932
194,1436799261869,-0.12808979,9.698911,-0.6775591
195,1436799261889,-0.10055647,9.5253315,-0.7811083
196,1436799261911,-0.023942016,9.592369,-0.86131406
197,1436799261931,-0.10414778,9.677363,-0.6907272
198,1436799261951,-0.18734628,9.501988,-0.6823475
199,1436799261968,-0.39803603,9.6049385,-0.670975
200,1436799261994,-0.39683893,9.600749,-0.6452374
201,1436799262011,-0.092176765,9.615114,-0.6847417
202,1436799262034,-0.12389994,9.496601,-0.82240826
203,1436799262050,-0.26036942,9.543886,-0.7092823
204,1436799262068,-0.2136825,9.576208,-0.6847417
205,1436799262089,-0.2896984,9.34038,-0.7026982
206,1436799262108,-0.34237084,9.355343,-0.6500258
207,1436799262128,-0.53330845,9.394848,-0.76434886
208,1436799262148,-0.44113165,9.802461,-0.59017074
209,1436799262170,-0.16579847,9.852738,-0.6410475
210,1436799262190,-0.10295067,9.651027,-0.6362591
211,1436799262210,-0.12988544,9.43076,-0.6997054
212,1436799262228,-0.3333926,9.408015,-0.7433996
213,1436799262254,-0.4830302,9.507974,-0.6835446
214,1436799262306,-0.50158525,9.640852,-0.58897364
215,1436799262307,-0.33159694,9.677961,-0.47884035
216,1436799262309,-0.11731588,9.876082,-0.54168814
217,1436799262332,-0.11492168,9.5385,-0.78290397
218,1436799262350,-0.2621651,9.476849,-0.80445176
219,1436799262371,-0.2621651,9.466674,-0.8583213
220,1436799262388,-0.2621651,9.686341,-0.7009025
221,1436799262408,-0.44113165,9.511565,-0.62728083
222,1436799262430,-0.2837129,9.569624,-0.65780693
223,1436799262450,-0.16160862,9.578004,-0.7356185
224,1436799262469,-0.15382746,9.519346,-0.7032967
225,1436799262490,-0.18076223,9.527725,-0.7326257
226,1436799262510,-0.219668,9.552266,-0.7032967
227,1436799262528,-0.1945289,9.653421,-0.7224504
228,1436799262550,-0.15442601,9.556456,-0.7350199
229,1436799262580,-0.12988544,9.592369,-0.7314286
230,1436799262588,-0.22445641,9.496002,-0.7332243
231,1436799262608,-0.31543607,9.623494,-0.52133745
232,1436799262628,-0.350152,9.624691,-0.6536171
233,1436799262648,-0.3705027,9.52593,-0.7015011
234,1436799262668,-0.29269117,9.504981,-0.6787562
235,1436799262688,-0.23523031,9.585785,-0.6739678
236,1436799262708,-0.2645593,9.405622,-0.7745243
237,1436799262728,-0.45429978,9.454104,-0.682946
238,1436799262752,-0.39444473,9.409811,-0.48243165
239,1436799262770,-0.26994625,9.593566,-0.59974754
240,1436799262792,-0.090381116,9.775525,-0.56563014
241,1436799262808,-0.06284779,9.722255,-0.6326678
242,1436799262828,-0.24959552,9.5732155,-0.5243302
243,1436799262848,-0.3800795,9.598953,-0.75357497
244,1436799262868,-0.30166942,9.589376,-0.6344634
245,1436799262889,-0.28491,9.583989,-0.5823896
246,1436799262909,-0.3609259,9.603742,-0.75237787
247,1436799262929,-0.32202014,9.577405,-0.6787562
248,1436799262948,-0.44831428,9.454104,-0.6817489
249,1436799262968,-0.34237084,9.551069,-0.6051345
250,1436799262989,-0.31244332,9.539697,-0.7026982
251,1436799263009,-0.22505496,9.63726,-0.6452374
252,1436799263028,-0.036511578,9.662998,-0.62368953
253,1436799263048,-0.24899697,9.532514,-0.5895722
254,1436799263069,-0.42916065,9.4457245,-0.7380127
255,1436799263088,-0.5093664,9.537901,-0.6362591
256,1436799263109,-0.33518824,9.5570545,-0.5434838
257,1436799263130,-0.22266077,9.603742,-0.66618663
258,1436799263149,-0.18674773,9.695918,-0.777517
259,1436799263169,-0.21428105,9.540296,-0.7254431
260,1436799263189,-0.22445641,9.564836,-0.6452374
261,1436799263211,-0.23942018,9.578004,-0.7188591
262,1436799263229,-0.27832595,9.534908,-0.6961141
263,1436799263249,-0.20649989,9.490017,-0.6655881
264,1436799263271,-0.22744916,9.697714,-0.65242
265,1436799263289,-0.130484,9.740809,-0.61770403
266,1436799263308,-0.13826515,9.572617,-0.58538234
267,1436799263329,-0.06284779,9.457097,-0.66139823
268,1436799263350,-0.38606504,9.405023,-0.664391
269,1436799263370,-0.6027403,9.46009,-0.7068881
270,1436799263393,-0.41718966,9.541492,-0.6721721
271,1436799263412,-0.20530279,9.665392,-0.52253455
272,1436799263433,-0.08798691,9.79827,-0.8391677
273,1436799263450,-0.39803603,9.671378,-0.7811083
274,1436799263472,-0.4950012,9.566631,-0.5470751
275,1436799263492,-0.38726214,9.512163,-0.56982
276,1436799263512,-0.23403321,9.609727,-0.5315128
277,1436799263532,-0.2621651,9.560646,-0.62249243
278,1436799263551,-0.21787235,9.522339,-0.4997896
279,1436799263572,-0.19572599,9.602545,-0.61890113
280,1436799263595,-0.23044191,9.583989,-0.6512229
281,1436799263610,-0.5770026,9.495404,-0.7942764
282,1436799263652,-0.7505822,9.578603,-0.4973954
283,1436799263653,-0.62728083,9.545084,-0.61052144
284,1436799263670,-0.37110126,9.634268,-0.6913257
285,1436799263690,0.0053869537,9.483433,-0.5686229
286,1436799263709,0.09816227,9.545682,-0.58298814
287,1436799263729,-0.26635495,9.609727,-0.50038815
288,1436799263750,-0.20111294,9.652225,-0.3286042
289,1436799263784,-0.25558102,9.540296,-0.33399114
290,1436799263789,-0.17836803,9.574412,-0.36152446
291,1436799263809,-0.02932897,9.667188,-0.3573346
292,1436799263829,-0.22325931,9.603143,-0.47884035
293,1436799263849,-0.44113165,9.592968,-0.44891283
294,1436799263870,-0.61112,9.506178,-0.5434838
295,1436799263892,-0.6398504,9.549872,-0.516549
296,1436799263911,-0.47225627,9.545682,-0.4165911
297,1436799263930,-0.3878607,9.531916,-0.6332663
298,1436799263952,-0.33159694,9.583391,-0.58657944
299,1436799263972,-0.34955344,9.566033,-0.56682724
300,1436799263990,-0.26276365,9.68694,-0.43155485
301,1436799264012,-0.20709845,9.625888,-0.45250413
302,1436799264031,-0.25677812,9.488221,-0.4878186
303,1436799264053,-0.25498247,9.504981,-0.49919105
304,1436799264070,-0.3800795,9.566631,-0.51235914
305,1436799264089,-0.4405331,9.540296,-0.4985925
306,1436799264116,-0.38367084,9.580399,-0.46567222
307,1436799264129,-0.39324763,9.631275,-0.47285482
308,1436799264149,-0.439336,9.645041,-0.4177882
309,1436799264170,-0.54408234,9.528324,-0.41299978
310,1436799264189,-0.54767364,9.492412,-0.40581718
311,1436799264210,-0.38307226,9.585187,-0.39025488
312,1436799264230,-0.34715924,9.5492735,-0.5650316
313,1436799264250,-0.40701428,9.611523,-0.58119243
314,1436799264272,-0.5291186,9.56723,-0.51595044
315,1436799264291,-0.5883751,9.57561,-0.48362875
316,1436799264353,-0.5009867,9.546281,-0.43993455
317,1436799264365,-0.40282443,9.463082,-0.54168814
318,1436799264366,-0.4357447,9.436148,-0.61052144
319,1436799264372,-0.5506664,9.474455,-0.4405331
320,1436799264390,-0.6194997,9.595362,-0.4177882
321,1436799264410,-0.51714754,9.633071,-0.51355624
322,1436799264430,-0.3417723,9.611523,-0.4973954
323,1436799264453,-0.2705448,9.589376,-0.43993455
324,1436799264470,-0.42197806,9.535507,-0.45789108
325,1436799264490,-0.5823896,9.610924,-0.46567222
326,1436799264511,-0.49320555,9.650429,-0.3716998
327,1436799264531,-0.39683893,9.542689,-0.47225627
328,1436799264550,-0.4213795,9.589376,-0.55844754
329,1436799264573,-0.28072014,9.531317,-0.5363012
330,1436799264592,-0.28790274,9.52593,-0.40821138
331,1436799264613,-0.20709845,9.524135,-0.3286042
332,1436799264632,-0.32142156,9.579201,-0.55964464
333,1436799264652,-0.3465607,9.572617,-0.54168814
334,1436799264672,-0.31423897,9.65821,-0.5117606
335,1436799264692,-0.15682021,9.738416,-0.38726214
336,1436799264713,-0.16819267,9.656414,-0.43275195
337,1436799264730,-0.28550854,9.818023,-0.44472298
338,1436799264751,-0.4297592,9.395446,-0.641646
339,1436799264773,-0.40162733,9.541492,-0.62129533
340,1436799264796,-0.3549404,9.404425,-0.6973112
341,1436799264812,0.053869538,9.738416,-0.50517654
342,1436799264833,0.20410569,9.551667,-0.80086046
343,1436799264852,0.2669535,9.710882,-0.57520694
344,1436799264870,0.24001873,9.563639,-0.6434417
345,1436799264894,0.4189853,9.655217,-0.6147113
346,1436799264911,0.1400608,9.409213,-0.7104794
347,1436799264944,-0.06943185,9.385271,-0.5279215
348,1436799264952,-0.34596214,9.317036,-0.60932434
349,1436799264972,-0.320823,9.386468,-0.4830302
350,1436799264992,-0.15861586,9.507974,-0.6075287
351,1436799265017,0.30286652,9.461287,-0.6841431
352,1436799265081,0.20649989,9.238028,-0.8122329
353,1436799265082,0.007182605,9.184756,-0.6889315
354,1436799265083,-0.076614454,9.580399,-0.56563014
355,1436799265090,-0.14305355,9.895236,-0.65182143
356,1436799265117,-0.28790274,10.214862,-0.56203884
357,1436799265133,-0.22505496,9.8916445,-0.39145198
358,1436799265151,-0.025737667,9.440337,-0.3776853
359,1436799265173,0.076614454,9.544485,-0.39205053
360,1436799265190,0.14963761,9.638457,-0.59974754
361,1436799265213,0.077811554,9.73662,-0.47105917
362,1436799265230,0.16101007,9.552266,-0.56443304
363,1436799265254,-0.08619126,9.809045,-0.5686229
364,1436799265271,-0.15622166,9.478644,-0.39444473
365,1436799265294,-0.34117374,9.471462,-0.29628247
366,1436799265311,-0.28431144,9.700109,-0.38187516
367,1436799265334,-0.25318682,9.881469,-0.45729253
368,1436799265354,0.0035913025,9.818023,-0.3752911
369,1436799265374,0.3345897,9.562442,-0.2753332
370,1436799265394,0.3513491,9.491813,-0.30825347
371,1436799265413,0.076614454,9.494206,-0.44113165
372,1436799265434,-0.27832595,9.49301,-0.29388827
373,1436799265452,-0.52073884,9.594764,-0.20590134
374,1436799265474,-0.6584055,9.581595,-0.24720132
375,1436799265494,-0.52732295,9.663596,-0.30226797
376,1436799265511,-0.39444473,9.589376,-0.6925228
377,1436799265531,-0.6793547,9.152434,-0.5883751
378,1436799265551,-1.049259,9.690532,-0.53330845
379,1436799265574,-0.24779987,10.011953,-0.05805939
380,1436799265597,0.18016368,9.452309,-0.107140526
381,1436799265613,0.20231004,9.346964,-0.5398925
382,1436799265634,-0.18794483,9.476251,-0.2172738
383,1436799265653,-0.32321724,9.733028,-0.13706805
384,1436799265671,-0.58538234,9.67856,-0.23403321
385,1436799265691,-0.7565677,9.568427,-0.10534488
386,1436799265713,-0.6063316,9.442732,-0.31783026
387,1436799265735,-0.40222588,9.671976,-0.5303157
388,1436799265798,-0.35194764,9.632472,-0.3824737
389,1436799265799,-0.6512229,9.441534,-0.2896984
390,1436799265800,-0.7032967,9.355942,-0.3184288
391,1436799265811,-0.7170634,9.409213,-0.095169514
392,1436799265834,-0.7763199,9.548077,-0.21787235
393,1436799265851,-0.6889315,9.596559,-0.3250129
394,1436799265873,-0.53929394,9.594165,-0.3788824
395,1436799265894,-0.39923313,9.607931,-0.26994625
396,1436799265912,-0.04309563,9.67856,0.0035913025
397,1436799265938,0.19393034,9.622296,0.10115502
398,1436799265953,0.08020575,9.504382,-0.29807812
399,1436799265975,-0.19393034,9.494206,-0.52373165
400,1436799265991,-0.95349085,9.515156,-0.7026982
401,1436799266015,-0.87448215,9.721058,0.038905777
402,1436799266035,-0.789488,9.589376,-0.060453594
