id,attr_time,attr_x,attr_y,attr_z
1,1435995489011,-0.007078074,0.01732998,0.11274448
2,1435995489032,-0.0067726374,0.004807243,0.107857555
3,1435995489053,-0.024182297,0.046651512,0.11091188
4,1435995489071,-0.036399603,0.024049498,0.117936835
5,1435995489091,-0.014713883,0.018551711,0.1176314
6,1435995489111,-0.02815292,0.014581086,0.11427164
7,1435995489133,-0.045257147,-0.03031751,0.10999559
8,1435995489153,-0.06297224,-0.04161852,0.10022174
9,1435995489173,-0.05930705,0.014886519,0.095945686
10,1435995489194,-0.055030994,0.026492957,0.11152275
11,1435995489211,-0.041286524,0.005418107,0.118242264
12,1435995489232,-0.037926767,-0.0077154953,0.120991156
13,1435995489252,-0.025098596,-7.9680234e-05,0.1185477
14,1435995489274,-0.025404029,-0.00069054496,0.11640967
15,1435995489344,-0.029374652,0.01397022,0.11335534
16,1435995489345,-0.032123547,0.03260161,0.10480323
17,1435995489346,-0.035483304,0.035350505,0.1026652
18,1435995489355,-0.040370226,0.021300603,0.097778276
19,1435995489370,-0.047089744,0.015191952,0.09686198
20,1435995489393,-0.04464628,0.0014474839,0.10602496
21,1435995489415,-0.050754935,0.011221327,0.107857555
22,1435995489430,-0.04983864,0.03260161,0.10846842
23,1435995489450,-0.0373159,-0.0028285729,0.100527175
24,1435995489472,-0.036705036,-0.021765396,0.106635824
25,1435995489490,-0.027847487,-0.013518715,0.107857555
26,1435995489512,-0.037621334,-0.0019122753,0.10602496
27,1435995489536,-0.037926767,-0.008937226,0.10907929
28,1435995489557,-0.029069219,-0.008937226,0.10877386
29,1435995489570,-0.03701047,0.005418107,0.10480323
30,1435995489592,-0.04311912,0.013359357,0.10480323
31,1435995489614,-0.05442013,0.028325554,0.11152275
32,1435995489633,-0.04892234,0.020078875,0.11274448
33,1435995489653,-0.040370226,-0.0013014097,0.11121731
34,1435995489674,-0.044951715,0.014581086,0.11182818
35,1435995489692,-0.043729987,0.03840483,0.10510866
36,1435995489714,-0.039453927,0.04634608,0.10969015
37,1435995489734,-0.039148495,0.039015695,0.11457707
38,1435995489753,-0.040064793,0.028630987,0.1176314
39,1435995489804,-0.04678431,0.010915894,0.119158566
40,1435995489805,-0.04770061,0.009388732,0.1157988
41,1435995489812,-0.051060367,0.010915894,0.1203803
42,1435995489831,-0.04892234,0.026492957,0.11518794
43,1435995489851,-0.0513658,0.022827767,0.11091188
44,1435995489871,-0.046173446,0.015497383,0.10969015
45,1435995489890,-0.045257147,0.027103823,0.10602496
46,1435995489921,-0.045868013,0.03932113,0.10724669
47,1435995489930,-0.038537633,0.05276016,0.108162984
48,1435995489950,-0.03029095,0.056425355,0.10724669
49,1435995489971,-0.038537633,0.06406117,0.1026652
50,1435995490014,-0.0382322,0.07780564,0.10480323
51,1435995490015,-0.033345275,0.08085997,0.10694126
52,1435995490033,-0.033650707,0.074140444,0.1044978
53,1435995490101,-0.027847487,0.08238713,0.08800443
54,1435995490102,-0.040064793,0.09796419,0.06448612
55,1435995490103,-0.06847003,0.10651631,0.05257425
56,1435995490126,-0.09748612,0.103156544,0.056850307
57,1435995490131,-0.08313079,0.045735214,0.097778276
58,1435995490151,-0.085268825,0.00083661824,0.12587808
59,1435995490171,-0.07335695,-0.061166205,0.14512034
60,1435995490191,-0.032123547,-0.12255816,0.14634207
61,1435995490214,-0.10817627,-0.12164187,0.13656822
62,1435995490231,0.012775049,-0.08163019,0.12221289
63,1435995490252,-0.024793163,0.025882095,0.11610424
64,1435995490272,-0.026320327,0.051233,0.10602496
65,1435995490291,-0.05014407,-0.0049666017,0.0895316
66,1435995490316,-0.055336423,-7.9680234e-05,0.06937304
67,1435995490333,-0.03029095,0.108654335,0.0895316
68,1435995490354,-0.040370226,0.06131228,0.11274448
69,1435995490374,-0.01349216,-0.027263183,0.13290304
70,1435995490394,-0.025709461,-0.008326361,0.12221289
71,1435995490414,-0.013797589,0.035655938,0.11518794
72,1435995490434,-0.009521529,0.061006844,0.112133615
73,1435995490454,-0.014103018,0.057952516,0.11274448
74,1435995490474,-0.005245477,0.039931994,0.12007486
75,1435995490496,-0.011964992,0.021911468,0.12801611
76,1435995490513,-0.025098596,-0.05383582,0.118242264
77,1435995490535,-0.06297224,-0.09262577,0.11152275
78,1435995490553,-0.07121892,-0.004355736,0.11304991
79,1435995490574,-0.075494975,-0.0031340057,0.113660775
80,1435995490593,-0.060834214,-0.05689015,0.12435092
81,1435995490617,-0.047395177,-0.046200007,0.12129659
82,1435995490631,-0.04647888,-0.0067991978,0.11518794
83,1435995490651,-0.051060367,0.009694165,0.10907929
84,1435995490672,-0.0504495,0.0231332,0.10297063
85,1435995490692,-0.043424554,0.03473964,0.10724669
86,1435995490711,-0.0522821,0.0371831,0.10724669
87,1435995490731,-0.05594729,0.035655938,0.10510866
88,1435995491074,-0.06969176,0.04542978,0.10510866
89,1435995491075,-0.084047094,0.0661992,0.09991631
90,1435995491076,-0.08465796,0.09032837,0.09319679
91,1435995491077,-0.07793844,0.075362176,0.09166963
92,1435995491078,-0.076716706,0.051233,0.087699
93,1435995491079,-0.07732757,0.048178673,0.0913642
94,1435995491080,-0.08740685,0.059479684,0.09258592
95,1435995491081,-0.08893401,0.09399357,0.09716742
96,1435995491082,-0.08374166,0.10498914,0.09686198
97,1435995491083,-0.07060806,0.090022944,0.102054335
98,1435995491084,-0.058696184,0.0661992,0.100527175
99,1435995491086,-0.059001617,0.060701415,0.094723955
100,1435995491087,-0.059001617,0.056730784,0.09380765
101,1435995491088,-0.059612483,0.06406117,0.08647727
102,1435995491089,-0.0654157,0.07505675,0.08647727
103,1435995491090,-0.060834214,0.07139155,0.0895316
104,1435995491091,-0.059612483,0.05459276,0.09166963
105,1435995491092,-0.06327768,0.04542978,0.0913642
106,1435995491122,-0.06999719,0.03687767,0.09441852
107,1435995491133,-0.06144508,0.027409256,0.09716742
108,1435995491152,-0.0654157,0.03168531,0.09105876
109,1435995491172,-0.059001617,0.031990744,0.09350222
110,1435995491191,-0.05930705,0.026187524,0.09258592
111,1435995491212,-0.05839075,0.015497383,0.09075333
112,1435995491232,-0.0672483,0.008472433,0.08739357
113,1435995491253,-0.070913486,0.009388732,0.0886153
114,1435995491272,-0.066637434,0.017635413,0.08983703
115,1435995491295,-0.06022335,0.031990744,0.08647727
116,1435995491313,-0.057779886,0.042375457,0.08495011
117,1435995491335,-0.04647888,0.058868818,0.084339246
118,1435995491352,-0.045257147,0.07352958,0.09075333
119,1435995491373,-0.04556258,0.0652829,0.10510866
120,1435995491395,-0.049533207,0.028630987,0.10877386
121,1435995491413,-0.056558155,0.015497383,0.1167151
122,1435995491434,-0.058696184,-0.0022177082,0.1203803
123,1435995491451,-0.057779886,-0.0092426585,0.1167151
124,1435995491472,-0.056252725,-0.0074100625,0.11182818
125,1435995491495,-0.049533207,0.0075561367,0.106330395
126,1435995491515,-0.04983864,0.018857144,0.10327607
127,1435995491533,-0.043729987,0.027714688,0.09655655
128,1435995491552,-0.045257147,0.04634608,0.09869458
129,1435995491576,-0.048311476,0.06009055,0.100832604
130,1435995491600,-0.04647888,0.066504635,0.106330395
131,1435995491611,-0.042202823,0.043902617,0.113660775
132,1435995491634,-0.045257147,0.02679839,0.118242264
133,1435995491651,-0.047089744,0.030463584,0.118242264
134,1435995491673,-0.0522821,0.027714688,0.11610424
135,1435995491692,-0.045257147,0.021606036,0.11640967
136,1435995491712,-0.042202823,0.014275653,0.11121731
137,1435995491734,-0.051060367,0.023744065,0.10877386
138,1435995491755,-0.056252725,0.036266804,0.1026652
139,1435995491774,-0.059001617,0.04848411,0.10419236
140,1435995491795,-0.0522821,0.05734165,0.100527175
141,1435995491816,-0.04983864,0.05428733,0.10419236
142,1435995491835,-0.043729987,0.047873244,0.10877386
143,1435995491855,-0.04403542,0.04420805,0.108162984
144,1435995491874,-0.047395177,0.039015695,0.10694126
145,1435995491896,-0.043424554,0.039015695,0.11396621
146,1435995491916,-0.041286524,0.041153725,0.10969015
147,1435995491936,-0.04434085,0.04634608,0.1185477
148,1435995491957,-0.048311476,0.041153725,0.11488251
149,1435995491974,-0.046173446,0.03107445,0.11488251
150,1435995491994,-0.0513658,0.029852718,0.11304991
151,1435995492014,-0.05350383,0.034434207,0.108162984
152,1435995492035,-0.0522821,0.038099397,0.11121731
153,1435995492053,-0.0513658,0.027409256,0.11549337
154,1435995492076,-0.04983864,0.012443058,0.1176314
155,1435995492098,-0.051976666,0.012137625,0.11274448
156,1435995492116,-0.054114696,0.021911468,0.11457707
157,1435995492136,-0.050754935,0.028630987,0.10969015
158,1435995492153,-0.04770061,0.03107445,0.10694126
159,1435995492173,-0.044951715,0.032296177,0.11030102
160,1435995492195,-0.042202823,0.028020121,0.11030102
161,1435995492214,-0.04464628,0.029852718,0.10907929
162,1435995492284,-0.04464628,0.02893642,0.11304991
163,1435995492285,-0.0513658,0.023744065,0.11030102
164,1435995492286,-0.049227774,0.028020121,0.11396621
165,1435995492302,-0.04434085,0.030158151,0.11121731
166,1435995492313,-0.037621334,0.032296177,0.11885313
167,1435995492338,-0.033650707,0.018551711,0.12007486
168,1435995492354,-0.03395614,0.010610461,0.119158566
169,1435995492375,-0.033650707,0.01152676,0.12221289
170,1435995492394,-0.03242898,0.011832193,0.12679438
171,1435995492413,-0.025404029,0.013359357,0.124045484
172,1435995492435,-0.02448773,0.01397022,0.12343462
173,1435995492455,-0.02815292,0.015497383,0.120991156
174,1435995492475,-0.02662576,0.021911468,0.1185477
175,1435995492494,-0.039453927,0.017635413,0.1167151
176,1435995492516,-0.03884306,0.020689737,0.11732597
177,1435995492536,-0.04067566,0.015802816,0.1157988
178,1435995492556,-0.039148495,0.017024547,0.11457707
179,1435995492573,-0.037926767,0.020078875,0.11304991
180,1435995492594,-0.0373159,0.011832193,0.11182818
181,1435995492616,-0.032734413,0.003280079,0.11335534
182,1435995492636,-0.03609417,0.0020583495,0.11182818
183,1435995492656,-0.04189739,0.009388732,0.11091188
184,1435995492676,-0.045257147,0.02527123,0.10510866
185,1435995492698,-0.036399603,0.03260161,0.108162984
186,1435995492717,-0.04067566,0.03351791,0.11304991
187,1435995492739,-0.036399603,0.021606036,0.1185477
188,1435995492757,-0.0382322,0.014886519,0.118242264
189,1435995492779,-0.033650707,0.01946801,0.11610424
190,1435995492794,-0.032734413,0.03596137,0.10877386
191,1435995492815,-0.036399603,0.03962656,0.106330395
192,1435995492834,-0.036705036,0.03840483,0.11091188
193,1435995492854,-0.04403542,0.04176459,0.10541409
194,1435995492877,-0.041591957,0.036572237,0.11427164
195,1435995492898,-0.0382322,0.028630987,0.11396621
196,1435995492918,-0.04281369,0.032296177,0.10602496
197,1435995492937,-0.04556258,0.04298632,0.1026652
198,1435995492958,-0.037926767,0.053065598,0.10144347
199,1435995493034,-0.0373159,0.051843867,0.10510866
200,1435995493035,-0.03395614,0.039931994,0.112439044
201,1435995493036,-0.03609417,0.025882095,0.11549337
202,1435995493037,-0.034261573,0.026187524,0.11030102
203,1435995493055,-0.039453927,0.031379882,0.107552126
204,1435995493077,-0.046173446,0.03473964,0.106635824
205,1435995493094,-0.046173446,0.03107445,0.10969015
206,1435995493119,-0.043729987,0.022522334,0.10419236
207,1435995493134,-0.04556258,0.013359357,0.10480323
208,1435995493154,-0.049227774,0.013664788,0.102054335
209,1435995493177,-0.047089744,0.009999597,0.1026652
210,1435995493195,-0.04861691,0.012748491,0.09869458
211,1435995493217,-0.05716902,0.0081670005,0.10144347
212,1435995493238,-0.047395177,0.017024547,0.108162984
213,1435995493254,-0.043424554,0.017024547,0.10480323
214,1435995493277,-0.04098109,0.017024547,0.10419236
215,1435995493296,-0.043424554,0.010610461,0.10571953
216,1435995493315,-0.04464628,0.005112674,0.108162984
217,1435995493338,-0.04861691,0.01030503,0.10419236
218,1435995493356,-0.048311476,0.01397022,0.09991631
219,1435995493377,-0.053198397,0.022827767,0.094723955
220,1435995493394,-0.05472556,0.034128774,0.09441852
221,1435995493418,-0.04983864,0.034434207,0.09991631
222,1435995493437,-0.045257147,0.03382334,0.10297063
223,1435995493460,-0.051671233,0.021300603,0.09808371
224,1435995493476,-0.0522821,0.017024547,0.10388693
225,1435995493496,-0.05472556,0.01946801,0.1035815
226,1435995493515,-0.054114696,0.018246278,0.09961087
227,1435995493534,-0.052892964,0.021911468,0.10297063
228,1435995493555,-0.05472556,0.025882095,0.09747285
229,1435995493575,-0.05350383,0.030158151,0.09655655
230,1435995493601,-0.04861691,0.03596137,0.10113804
231,1435995493616,-0.051060367,0.032296177,0.10113804
232,1435995493636,-0.0504495,0.030769017,0.10022174
233,1435995493656,-0.055336423,0.03168531,0.095945686
234,1435995493688,-0.054114696,0.041153725,0.094723955
235,1435995493757,-0.04983864,0.041153725,0.09380765
236,1435995493758,-0.050754935,0.034434207,0.100527175
237,1435995493759,-0.0513658,0.024660364,0.10327607
238,1435995493760,-0.051060367,0.02099517,0.102054335
239,1435995493775,-0.047395177,0.030769017,0.10022174
240,1435995493797,-0.046173446,0.032296177,0.10419236
241,1435995493814,-0.049227774,0.027714688,0.11121731
242,1435995493834,-0.05472556,0.022827767,0.1185477
243,1435995493855,-0.05258753,-0.00069054496,0.124045484
244,1435995493878,-0.09809699,-0.08163019,0.13962255
245,1435995493897,-0.14391188,-0.19433483,0.1429823
246,1435995493915,-0.20988533,-0.24809098,0.1316813
247,1435995493941,-0.21965918,-0.18639359,0.12832154
248,1435995493958,-0.22943303,-0.18364468,0.14176057
249,1435995493976,-0.24287206,-0.21327165,0.14603662
250,1435995493996,-0.20683101,0.03687767,0.13717909
251,1435995494017,-0.07641128,0.15446922,0.11518794
252,1435995494037,0.03720966,0.013359357,0.101748906
253,1435995494059,-0.00341288,-0.07338351,0.119463995
254,1435995494077,-0.11917184,-0.02451429,0.12801611
255,1435995494098,-0.23981774,0.0057235397,0.119769424
256,1435995494117,-0.40383506,0.01946801,0.1157988
257,1435995494136,-0.63535297,0.08666319,0.13534649
258,1435995494157,-0.8864186,0.33620164,0.12435092
259,1435995494179,-1.0852553,0.75159,0.09686198
260,1435995494195,-1.1857425,0.9620331,0.15642133
261,1435995494217,-1.188186,0.9809699,0.25415978
262,1435995494235,-1.1054138,0.99104923,0.29905838
263,1435995494257,-1.0537957,0.75556064,0.31830063
264,1435995494281,-0.9942363,0.3450592,0.36289382
265,1435995494297,-0.8512938,0.32245716,0.34273523
266,1435995494319,-0.68513846,0.2751151,0.3311288
267,1435995494335,-0.43437833,0.2946628,0.27156943
268,1435995494355,-0.20133322,0.15966159,0.2850085
269,1435995494375,-0.080992766,-0.052919522,0.2694314
270,1435995494399,-0.07121892,-0.29909822,0.24346964
271,1435995494418,-0.033650707,-0.44326243,0.21536984
272,1435995494468,0.036293365,-0.48571756,0.13717909
273,1435995494469,-0.0076889396,-0.2810777,0.08372838
274,1435995494488,-0.015630186,-0.079797596,0.16955495
275,1435995494495,0.08088652,0.011221327,0.3189115
276,1435995494518,0.24215496,0.13064548,0.43680847
277,1435995494541,0.44771108,0.18165272,0.52843827
278,1435995494555,0.5567506,0.23235455,0.5553163
279,1435995494582,0.58301777,0.09032837,0.54218274
280,1435995494596,0.6068415,-0.20930102,0.6121268
281,1435995494616,0.63127613,-0.41241372,0.7321619
282,1435995494637,0.79987496,-0.4927425,0.9154214
283,1435995494656,1.1141651,-0.38431394,0.9459647
284,1435995494676,1.3325495,0.2057819,0.87052286
285,1435995494699,1.2024351,0.87834454,0.9817003
286,1435995494719,0.96939003,0.80840045,1.1167015
287,1435995494737,-0.1787312,0.47944954,0.57486403
288,1435995494758,-0.23737428,0.31207246,0.38121974
289,1435995494779,0.46267727,-0.044672843,0.41023588
290,1435995494799,0.30965555,0.4171413,0.04982536
291,1435995494819,0.27605796,1.0307555,0.031193968
292,1435995494835,0.94281745,-0.0480326,0.14450946
293,1435995494859,1.5234448,-0.90049505,-0.08578673
294,1435995494876,1.8441491,-0.6650065,-0.27515495
295,1435995494899,1.9174529,-0.19158593,-0.39121938
296,1435995494916,1.8044429,-0.21327165,-0.34784794
297,1435995494938,1.6584461,-0.33788818,-0.26415938
298,1435995494955,1.808108,-0.31039923,-0.1633666
299,1435995494981,2.1147623,0.06406117,0.022030987
300,1435995495001,1.5943052,0.5099928,0.24163705
301,1435995495022,0.90097314,-0.07949216,0.34426242
302,1435995495035,0.6401337,-0.38003787,0.36686444
303,1435995495056,0.24184951,-0.16440243,0.19948734
304,1435995495077,-0.73736745,-0.27222016,0.02019839
305,1435995495096,-1.990863,-0.09048773,-0.19482617
306,1435995495115,-2.6738105,0.5359546,-0.20215656
307,1435995495187,-3.2040415,0.70119363,-0.041499004
308,1435995495188,-3.3821087,1.3471837,0.12618351
309,1435995495189,-3.3417916,2.0899959,0.06204266
310,1435995495210,-3.6988423,2.1153467,-1.1080697
311,1435995495216,-3.6182082,-0.49213165,-2.3368254
312,1435995495239,-3.9135613,-5.4694614,-0.41473764
313,1435995495256,-1.9444371,-1.1909615,0.009508252
314,1435995495276,-1.0302774,3.8172174,-1.367382
315,1435995495299,-2.6102805,3.3492944,-1.1502194
316,1435995495316,-2.7742977,-0.19464025,-0.959324
317,1435995495339,-1.6738238,-2.1900315,-0.37930745
318,1435995495361,-0.092599206,-2.467059,-0.33227086
319,1435995495377,0.86096144,-2.0150187,-0.23178352
320,1435995495402,1.2293133,-2.006772,0.19337869
321,1435995495419,1.4379237,-1.176606,0.30822134
322,1435995495439,1.7073152,-0.37728897,0.51316667
323,1435995495459,2.0946038,0.6776753,0.66679925
324,1435995495479,2.1963127,1.0683237,0.8558621
325,1435995495499,2.072307,1.0490814,1.0730246
326,1435995495519,1.6673036,0.39331752,1.2474266
327,1435995495539,-0.68758196,-0.87972564,0.42214775
328,1435995495559,-2.587373,-3.19857,-0.9605458
329,1435995495581,-1.8344815,-0.30062538,-1.140751
330,1435995495596,0.3111827,0.38568172,-0.38449985
331,1435995495620,3.4403398,1.6684988,3.260533
332,1435995495639,3.4980667,2.0567036,1.7947619
333,1435995495659,0.9006677,-6.8729243,-1.5301776
334,1435995495679,1.2717683,-4.6820564,-1.0778319
335,1435995495700,3.2726574,-1.4866202,-0.8930451
336,1435995495719,3.4159052,0.32337347,-0.78736544
337,1435995495739,2.7714424,2.1968973,-0.13740484
338,1435995495760,2.3697984,2.277226,0.49484068
339,1435995495780,1.4486139,-1.1961538,0.6035747
340,1435995495800,0.4028125,-1.4954778,0.5473751
341,1435995495820,-0.49393767,0.3377288,0.56111956
342,1435995495840,-1.3460946,1.121469,0.39588052
343,1435995495859,-1.8247076,0.5820749,0.11885313
344,1435995495928,-2.5042953,0.5854347,-0.050051108
345,1435995495929,-3.0213928,0.89819765,-0.115719125
346,1435995495930,-3.342097,0.6782862,-0.31486118
347,1435995495936,-3.9773967,0.1972298,-0.96940327
348,1435995495957,-4.455704,-0.9450882,-2.757406
349,1435995495981,-4.0335965,-4.145106,0.90717477
350,1435995495996,-3.2364173,0.48891795,1.6954963
351,1435995496019,-2.168014,3.534692,0.27645636
352,1435995496048,-1.9172536,2.656268,-1.4278576
353,1435995496062,-2.5757666,0.63247126,-0.81454897
354,1435995496076,-1.8121848,-2.595035,-0.5497389
355,1435995496096,-0.33816704,-2.953613,-0.38449985
356,1435995496116,1.1786114,-1.902314,-0.24888773
357,1435995496136,1.7143402,-1.5171635,0.0024833009
358,1435995496157,1.7848952,-1.0956664,0.14725837
359,1435995496180,1.6728014,0.18837225,0.43497592
360,1435995496200,1.7213652,1.2243998,0.6933719
361,1435995496220,1.9901458,1.1901913,1.0562258
362,1435995496240,2.2622862,0.22471872,1.2315441
363,1435995496260,-0.24378836,0.028325554,0.33387768
364,1435995496280,-3.08309,-0.17692518,-0.48193282
365,1435995496300,-1.0073699,1.5469366,0.3170789
366,1435995496319,0.49658033,0.13705957,0.81065804
367,1435995496339,0.90586007,2.2424066,1.1616001
368,1435995496360,1.9840373,1.1367406,0.13687366
369,1435995496378,1.8349861,-3.5440145,-0.6416741
370,1435995496398,2.166075,-5.219007,-0.25896704
371,1435995496417,4.3144884,-2.758747,-0.35487288
372,1435995496442,5.9513016,0.4360781,-0.4300093
373,1435995496463,4.3147936,1.6675825,0.022641852
374,1435995496483,1.2580239,1.6883519,0.34701133
375,1435995496498,2.0365715,-0.8723953,0.6799329
376,1435995496517,1.4809897,-1.709586,0.6735188
377,1435995496538,0.6068415,0.15446922,0.6961208
378,1435995496557,-0.5980902,0.9229377,0.63503426
379,1435995496579,-1.6955096,0.11690102,0.30241814
380,1435995496600,-2.240096,-0.49854574,-0.11358109
381,1435995496669,-2.5925653,-0.13844067,-0.39763343
382,1435995496670,-2.8308027,0.64927006,-0.57325715
