id,attr_time,attr_x,attr_y,attr_z
1,1435990454115,-0.10517505,-0.16665998,0.14373925
2,1435990454136,-0.100898996,-0.16391109,0.14343381
3,1435990454158,-0.101204425,-0.16207848,0.1480153
4,1435990454173,-0.104258746,-0.16482738,0.14618272
5,1435990454197,-0.108534805,-0.16604911,0.14404468
6,1435990454216,-0.10181529,-0.15994045,0.1422121
7,1435990454238,-0.107007645,-0.1602459,0.13946319
8,1435990454294,-0.10792394,-0.15963502,0.13915776
9,1435990454295,-0.102731586,-0.15169378,0.14496098
10,1435990454306,-0.09448491,-0.16238391,0.14496098
11,1435990454315,-0.099982694,-0.17093603,0.14923704
12,1435990454343,-0.10609135,-0.17032517,0.14587727
13,1435990454356,-0.10914567,-0.16482738,0.14557184
14,1435990454374,-0.1103674,-0.16421652,0.14129579
15,1435990454414,-0.099677265,-0.15505354,0.13793603
16,1435990454415,-0.094179474,-0.15444267,0.13213281
17,1435990454434,-0.09143058,-0.14955574,0.13457628
18,1435990454457,-0.09692837,-0.14466883,0.14007406
19,1435990454477,-0.10334245,-0.15322094,0.13976863
20,1435990454494,-0.1103674,-0.15352637,0.14160122
21,1435990454518,-0.10884024,-0.1602459,0.14251752
22,1435990454537,-0.11494889,-0.15688613,0.1480153
23,1435990454557,-0.118614085,-0.15994045,0.14893161
24,1435990454575,-0.111589134,-0.15871873,0.14679357
25,1435990454598,-0.107007645,-0.15505354,0.14679357
26,1435990454618,-0.09845553,-0.15627527,0.14099035
27,1435990454639,-0.0972338,-0.15261008,0.14037949
28,1435990454657,-0.09601207,-0.14863946,0.14068492
29,1435990454676,-0.09662294,-0.1556644,0.14099035
30,1435990454697,-0.10548048,-0.15413724,0.13793603
31,1435990454714,-0.11372717,-0.15047204,0.14770988
32,1435990454737,-0.111589134,-0.15719157,0.14740443
33,1435990454756,-0.11097827,-0.17185234,0.14740443
34,1435990454777,-0.11097827,-0.17124146,0.14037949
35,1435990454796,-0.10884024,-0.16574368,0.13946319
36,1435990454818,-0.10548048,-0.1602459,0.135798
37,1435990454837,-0.10334245,-0.16207848,0.13915776
38,1435990454857,-0.10334245,-0.16482738,0.13885233
39,1435990454877,-0.10456418,-0.1611622,0.14129579
40,1435990454904,-0.10639678,-0.157497,0.14251752
41,1435990454917,-0.10731308,-0.15505354,0.14435011
42,1435990454937,-0.11342173,-0.16085675,0.14312838
43,1435990454954,-0.11342173,-0.1611622,0.1422121
44,1435990454975,-0.10914567,-0.15627527,0.14648814
45,1435990455060,-0.1103674,-0.16421652,0.14587727
46,1435990455061,-0.111589134,-0.16910344,0.14404468
47,1435990455062,-0.113116294,-0.16818714,0.14160122
48,1435990455063,-0.10670221,-0.16849257,0.13610344
49,1435990455077,-0.10059356,-0.1611622,0.13365997
50,1435990455102,-0.099677265,-0.15505354,0.13915776
51,1435990455119,-0.09570664,-0.15474811,0.13243824
52,1435990455135,-0.10670221,-0.15230465,0.1385469
53,1435990455155,-0.11800322,-0.14955574,0.14404468
54,1435990455175,-0.11769779,-0.15627527,0.14404468
55,1435990455198,-0.11800322,-0.15902416,0.14373925
56,1435990455218,-0.115865186,-0.16299479,0.14587727
57,1435990455235,-0.11006197,-0.15780243,0.14496098
58,1435990455255,-0.11067283,-0.15535897,0.14037949
59,1435990455277,-0.10822938,-0.15474811,0.13732517
60,1435990455298,-0.10517505,-0.15444267,0.1376306
61,1435990455318,-0.10517505,-0.15169378,0.13885233
62,1435990455338,-0.105785914,-0.15627527,0.14160122
63,1435990455358,-0.1103674,-0.15596983,0.14099035
64,1435990455379,-0.113116294,-0.15810786,0.14373925
65,1435990455398,-0.11617062,-0.15719157,0.14282295
66,1435990455419,-0.11617062,-0.16299479,0.14190665
67,1435990455445,-0.1103674,-0.16085675,0.14099035
68,1435990455458,-0.10548048,-0.15871873,0.13885233
69,1435990455478,-0.10761851,-0.157497,0.1376306
70,1435990455499,-0.11067283,-0.16085675,0.14160122
71,1435990455518,-0.10731308,-0.15994045,0.14282295
72,1435990455538,-0.112505436,-0.16635454,0.14129579
73,1435990455558,-0.11647606,-0.16727084,0.14129579
74,1435990455578,-0.1122,-0.16818714,0.13915776
75,1435990455598,-0.11189456,-0.16482738,0.1376306
76,1435990455618,-0.1140326,-0.16177306,0.13885233
77,1435990455638,-0.11830865,-0.16207848,0.1385469
78,1435990455659,-0.114643455,-0.157497,0.13793603
79,1435990455679,-0.10914567,-0.15902416,0.1422121
80,1435990455698,-0.10884024,-0.16482738,0.14618272
81,1435990455719,-0.115865186,-0.16788171,0.14404468
82,1435990455777,-0.115865186,-0.16574368,0.14037949
83,1435990455788,-0.111589134,-0.16330022,0.13885233
84,1435990455789,-0.10914567,-0.15841329,0.13885233
85,1435990455798,-0.10609135,-0.15169378,0.1385469
86,1435990455816,-0.099982694,-0.15383181,0.1348817
87,1435990455839,-0.09876096,-0.15138835,0.13549256
88,1435990455856,-0.11006197,-0.1471123,0.14190665
89,1435990455877,-0.113116294,-0.15627527,0.14435011
90,1435990455895,-0.112810865,-0.16177306,0.14099035
91,1435990455918,-0.11372717,-0.1556644,0.13976863
92,1435990455940,-0.108534805,-0.15077749,0.14373925
93,1435990455956,-0.10792394,-0.15688613,0.14190665
94,1435990455981,-0.11006197,-0.15535897,0.13824145
95,1435990455999,-0.107007645,-0.16085675,0.13732517
96,1435990456019,-0.10761851,-0.15871873,0.14160122
97,1435990456039,-0.10639678,-0.1611622,0.13885233
98,1435990456060,-0.10914567,-0.16177306,0.13976863
99,1435990456078,-0.11097827,-0.15994045,0.14129579
100,1435990456099,-0.11342173,-0.16146763,0.14557184
101,1435990456119,-0.11372717,-0.16635454,0.14526641
102,1435990456139,-0.11006197,-0.16574368,0.14343381
103,1435990456159,-0.10822938,-0.16452195,0.14435011
104,1435990456176,-0.10792394,-0.16421652,0.14160122
105,1435990456199,-0.10639678,-0.15994045,0.14068492
106,1435990456219,-0.102731586,-0.1565807,0.14282295
107,1435990456239,-0.10670221,-0.1602459,0.13793603
108,1435990456258,-0.108534805,-0.15963502,0.13976863
109,1435990456279,-0.10914567,-0.1611622,0.14465554
110,1435990456299,-0.1122,-0.15444267,0.14129579
111,1435990456319,-0.108534805,-0.1556644,0.14404468
112,1435990456339,-0.10609135,-0.15474811,0.14037949
113,1435990456359,-0.1140326,-0.15780243,0.13885233
114,1435990456379,-0.11617062,-0.15077749,0.14190665
115,1435990456403,-0.105785914,-0.15108292,0.14862616
116,1435990456420,-0.101509854,-0.16268936,0.147099
117,1435990456518,-0.10822938,-0.16482738,0.14282295
118,1435990456519,-0.112810865,-0.17001973,0.14343381
119,1435990456520,-0.10975654,-0.16146763,0.14160122
120,1435990456521,-0.10242616,-0.15352637,0.13824145
121,1435990456522,-0.104258746,-0.15535897,0.13976863
122,1435990456540,-0.104258746,-0.15322094,0.1367143
123,1435990456559,-0.10792394,-0.14833403,0.13885233
124,1435990456580,-0.113116294,-0.14955574,0.14893161
125,1435990456596,-0.11525433,-0.16207848,0.1480153
126,1435990456622,-0.11678149,-0.1602459,0.14923704
127,1435990456638,-0.11739235,-0.15902416,0.14526641
128,1435990456658,-0.11555976,-0.15444267,0.14099035
129,1435990456682,-0.10670221,-0.15322094,0.14557184
130,1435990456697,-0.0981501,-0.15596983,0.14037949
131,1435990456721,-0.09906639,-0.15383181,0.14160122
132,1435990456739,-0.10486962,-0.16452195,0.14312838
133,1435990456759,-0.105785914,-0.16452195,0.14373925
134,1435990456778,-0.111589134,-0.16085675,0.14312838
135,1435990456800,-0.10914567,-0.15841329,0.14312838
136,1435990456820,-0.10731308,-0.15413724,0.14129579
137,1435990456840,-0.10761851,-0.16238391,0.14740443
138,1435990456860,-0.11006197,-0.16940887,0.14679357
139,1435990456878,-0.11067283,-0.16665998,0.1385469
140,1435990456899,-0.104258746,-0.15505354,0.1348817
141,1435990456919,-0.10548048,-0.15261008,0.1376306
142,1435990456940,-0.10334245,-0.15474811,0.14251752
143,1435990456956,-0.10456418,-0.15719157,0.14312838
144,1435990456979,-0.11189456,-0.16268936,0.14832073
145,1435990456998,-0.113116294,-0.15902416,0.14435011
146,1435990457022,-0.107007645,-0.15474811,0.14770988
147,1435990457042,-0.10456418,-0.1556644,0.14129579
148,1435990457062,-0.10975654,-0.15719157,0.13976863
149,1435990457080,-0.10059356,-0.15230465,0.14373925
150,1435990457098,-0.092652306,-0.1519992,0.14587727
151,1435990457117,-0.09601207,-0.15994045,0.147099
152,1435990457138,-0.105785914,-0.15596983,0.14526641
153,1435990457158,-0.11097827,-0.16055132,0.14740443
154,1435990457178,-0.10639678,-0.15444267,0.14007406
155,1435990457248,-0.102731586,-0.15322094,0.13732517
156,1435990457249,-0.09906639,-0.14925031,0.13701972
157,1435990457250,-0.09784466,-0.15352637,0.13976863
158,1435990457259,-0.09937183,-0.15383181,0.14282295
159,1435990457284,-0.108534805,-0.15291551,0.1480153
160,1435990457298,-0.11372717,-0.15780243,0.14404468
161,1435990457319,-0.108534805,-0.16360566,0.147099
162,1435990457339,-0.1103674,-0.16330022,0.14618272
163,1435990457357,-0.11067283,-0.157497,0.14282295
164,1435990457380,-0.10731308,-0.16757628,0.14099035
165,1435990457410,-0.107007645,-0.16574368,0.14251752
166,1435990457421,-0.10486962,-0.16421652,0.14160122
167,1435990457437,-0.09906639,-0.16330022,0.13793603
168,1435990457458,-0.10212073,-0.15902416,0.13824145
169,1435990457480,-0.10334245,-0.1611622,0.14251752
170,1435990457500,-0.104258746,-0.16574368,0.14068492
171,1435990457520,-0.11067283,-0.16238391,0.14312838
172,1435990457540,-0.11067283,-0.1611622,0.14557184
173,1435990457560,-0.105785914,-0.16604911,0.14343381
174,1435990457580,-0.10364789,-0.16910344,0.14404468
175,1435990457599,-0.10059356,-0.16452195,0.14251752
176,1435990457621,-0.10486962,-0.15994045,0.14465554
177,1435990457638,-0.10212073,-0.1611622,0.14557184
178,1435990457660,-0.10884024,-0.16177306,0.14526641
179,1435990457680,-0.1094511,-0.15810786,0.14496098
180,1435990457700,-0.10548048,-0.15596983,0.14068492
181,1435990457720,-0.10028812,-0.15474811,0.14343381
182,1435990457739,-0.10975654,-0.15627527,0.13793603
183,1435990457761,-0.10731308,-0.14741772,0.14343381
184,1435990457782,-0.09662294,-0.15077749,0.14740443
185,1435990457800,-0.09784466,-0.15902416,0.15137506
186,1435990457821,-0.104258746,-0.16360566,0.14954247
187,1435990457839,-0.11525433,-0.16543825,0.14282295
188,1435990457858,-0.1094511,-0.16360566,0.14251752
189,1435990457880,-0.10059356,-0.16177306,0.14099035
190,1435990457899,-0.0981501,-0.16146763,0.1376306
191,1435990457921,-0.09906639,-0.1565807,0.13121651
192,1435990457984,-0.0981501,-0.14863946,0.1385469
193,1435990457985,-0.104258746,-0.14527969,0.14282295
194,1435990457986,-0.11006197,-0.1556644,0.147099
195,1435990457998,-0.113116294,-0.1565807,0.14679357
196,1435990458022,-0.11189456,-0.15627527,0.14435011
197,1435990458039,-0.112810865,-0.15902416,0.14648814
198,1435990458059,-0.10822938,-0.15688613,0.1480153
199,1435990458079,-0.10334245,-0.15871873,0.14404468
200,1435990458098,-0.102731586,-0.15444267,0.14496098
201,1435990458125,-0.09662294,-0.1611622,0.14190665
202,1435990458161,-0.09906639,-0.1556644,0.14251752
203,1435990458176,-0.101509854,-0.15474811,0.14648814
204,1435990458178,-0.11097827,-0.1565807,0.14404468
205,1435990458200,-0.1103674,-0.16330022,0.14862616
206,1435990458221,-0.112810865,-0.16299479,0.147099
207,1435990458240,-0.111283705,-0.16696541,0.14648814
208,1435990458260,-0.1103674,-0.16818714,0.14679357
209,1435990458280,-0.10884024,-0.16452195,0.1480153
210,1435990458301,-0.10334245,-0.16452195,0.14618272
211,1435990458321,-0.10639678,-0.16268936,0.14587727
212,1435990458340,-0.1103674,-0.16360566,0.14648814
213,1435990458360,-0.10761851,-0.16207848,0.14587727
214,1435990458380,-0.10761851,-0.16238391,0.147099
215,1435990458405,-0.10242616,-0.16238391,0.14404468
216,1435990458426,-0.107007645,-0.1602459,0.14465554
217,1435990458438,-0.113116294,-0.15688613,0.14465554
218,1435990458460,-0.1094511,-0.15261008,0.147099
219,1435990458479,-0.09448491,-0.16085675,0.1498479
220,1435990458502,-0.09601207,-0.16757628,0.14740443
221,1435990458520,-0.10242616,-0.16360566,0.14740443
222,1435990458538,-0.10212073,-0.16177306,0.14404468
223,1435990458558,-0.09662294,-0.16207848,0.14190665
224,1435990458579,-0.09509577,-0.157497,0.14373925
225,1435990458599,-0.0981501,-0.15688613,0.13976863
226,1435990458618,-0.101509854,-0.14894488,0.1376306
227,1435990458639,-0.10395332,-0.14100364,0.14312838
228,1435990458666,-0.10517505,-0.14986119,0.14740443
229,1435990458723,-0.1103674,-0.15841329,0.14648814
230,1435990458724,-0.11189456,-0.15963502,0.1498479
231,1435990458725,-0.10609135,-0.1565807,0.13976863
232,1435990458740,-0.10486962,-0.15016662,0.14740443
233,1435990458760,-0.099982694,-0.15230465,0.14496098
234,1435990458780,-0.092652306,-0.14986119,0.14099035
235,1435990458799,-0.0981501,-0.15108292,0.14587727
236,1435990458818,-0.09326318,-0.15261008,0.14435011
237,1435990458840,-0.09906639,-0.16055132,0.14648814
238,1435990458860,-0.10456418,-0.1602459,0.14282295
239,1435990458880,-0.11006197,-0.16055132,0.14679357
240,1435990458899,-0.1094511,-0.15719157,0.14587727
241,1435990458921,-0.11006197,-0.16299479,0.14435011
242,1435990458938,-0.10609135,-0.16635454,0.14099035
243,1435990458958,-0.10486962,-0.16452195,0.14129579
244,1435990458978,-0.10548048,-0.16299479,0.14007406
245,1435990459003,-0.101509854,-0.16177306,0.14129579
246,1435990459022,-0.105785914,-0.16574368,0.14282295
247,1435990459039,-0.10639678,-0.16940887,0.14373925
248,1435990459062,-0.1094511,-0.17093603,0.14526641
249,1435990459082,-0.11189456,-0.16604911,0.14435011
250,1435990459102,-0.10639678,-0.1611622,0.14435011
251,1435990459122,-0.108534805,-0.15810786,0.1422121
252,1435990459140,-0.10792394,-0.15444267,0.14190665
253,1435990459162,-0.10059356,-0.15261008,0.147099
254,1435990459181,-0.101509854,-0.16085675,0.1516805
255,1435990459203,-0.10884024,-0.16421652,0.14435011
256,1435990459222,-0.10822938,-0.16391109,0.14160122
257,1435990459242,-0.10792394,-0.16238391,0.1422121
258,1435990459260,-0.10884024,-0.15963502,0.13793603
259,1435990459284,-0.10609135,-0.15444267,0.13824145
260,1435990459303,-0.102731586,-0.15291551,0.1385469
261,1435990459323,-0.104258746,-0.14680687,0.14190665
262,1435990459344,-0.108534805,-0.14863946,0.14251752
263,1435990459363,-0.11647606,-0.157497,0.14282295
264,1435990459382,-0.11342173,-0.15352637,0.14770988
265,1435990459415,-0.11525433,-0.1556644,0.14587727
266,1435990459503,-0.11555976,-0.15627527,0.14373925
267,1435990459504,-0.11617062,-0.1519992,0.14893161
268,1435990459505,-0.112505436,-0.15535897,0.14496098
269,1435990459506,-0.10639678,-0.15108292,0.14190665
270,1435990459507,-0.105785914,-0.15322094,0.13732517
271,1435990459530,-0.1103674,-0.15261008,0.14099035
272,1435990459544,-0.112505436,-0.15627527,0.13976863
273,1435990459559,-0.11555976,-0.1565807,0.14068492
274,1435990459585,-0.12075211,-0.15719157,0.14282295
275,1435990459600,-0.11769779,-0.15383181,0.14618272
276,1435990459620,-0.114643455,-0.16330022,0.14190665
277,1435990459645,-0.1122,-0.16299479,0.14282295
278,1435990459660,-0.11189456,-0.16146763,0.14007406
279,1435990459682,-0.112810865,-0.16360566,0.13976863
280,1435990459703,-0.11189456,-0.15902416,0.13885233
281,1435990459722,-0.115865186,-0.16604911,0.14160122
282,1435990459742,-0.11555976,-0.17215776,0.13824145
283,1435990459761,-0.11708692,-0.16665998,0.1422121
284,1435990459783,-0.115865186,-0.16207848,0.13640887
285,1435990459803,-0.11708692,-0.16085675,0.14007406
286,1435990459822,-0.114338025,-0.16207848,0.14007406
287,1435990459842,-0.10059356,-0.15474811,0.14007406
288,1435990459859,-0.09845553,-0.16696541,0.14129579
289,1435990459880,-0.1094511,-0.16849257,0.14862616
290,1435990459900,-0.11189456,-0.17001973,0.14526641
291,1435990459923,-0.1140326,-0.1706306,0.13976863
292,1435990459941,-0.10884024,-0.16055132,0.13701972
293,1435990459960,-0.10731308,-0.15352637,0.135798
294,1435990459981,-0.10059356,-0.15108292,0.1339654
295,1435990460004,-0.10212073,-0.1471123,0.135798
296,1435990460025,-0.107007645,-0.15138835,0.13976863
297,1435990460045,-0.114338025,-0.15230465,0.14312838
298,1435990460062,-0.114643455,-0.15627527,0.14465554
299,1435990460080,-0.11067283,-0.1602459,0.14404468
300,1435990460099,-0.11097827,-0.15963502,0.14587727
301,1435990460122,-0.11097827,-0.15413724,0.14343381
302,1435990460143,-0.10395332,-0.15138835,0.15015334
303,1435990460210,-0.101204425,-0.15413724,0.14618272
304,1435990460211,-0.105785914,-0.15322094,0.14007406
305,1435990460212,-0.10486962,-0.15230465,0.14037949
306,1435990460220,-0.104258746,-0.15169378,0.14251752
307,1435990460240,-0.10670221,-0.15596983,0.14007406
308,1435990460260,-0.10914567,-0.15535897,0.13915776
309,1435990460280,-0.1094511,-0.15535897,0.13824145
310,1435990460305,-0.10670221,-0.15138835,0.14282295
311,1435990460322,-0.11067283,-0.15719157,0.14496098
312,1435990460341,-0.10639678,-0.16085675,0.1422121
313,1435990460361,-0.10548048,-0.16574368,0.14037949
314,1435990460382,-0.10761851,-0.16696541,0.14618272
315,1435990460402,-0.111283705,-0.16910344,0.14373925
316,1435990460421,-0.10639678,-0.16299479,0.13976863
317,1435990460442,-0.102731586,-0.16299479,0.14068492
318,1435990460461,-0.10242616,-0.16421652,0.13701972
319,1435990460481,-0.10548048,-0.16146763,0.14007406
320,1435990460503,-0.09906639,-0.1565807,0.14282295
321,1435990460523,-0.10609135,-0.17124146,0.1422121
322,1435990460543,-0.112505436,-0.17093603,0.14526641
323,1435990460563,-0.11342173,-0.17276862,0.14496098
324,1435990460580,-0.10975654,-0.1697143,0.14343381
325,1435990460603,-0.10334245,-0.16452195,0.1376306
326,1435990460621,-0.101204425,-0.15535897,0.14007406
327,1435990460643,-0.099677265,-0.15474811,0.13793603
328,1435990460663,-0.10334245,-0.157497,0.14007406
329,1435990460682,-0.10395332,-0.15322094,0.14465554
330,1435990460702,-0.111283705,-0.157497,0.14282295
331,1435990460723,-0.11097827,-0.15627527,0.14160122
332,1435990460743,-0.10609135,-0.15780243,0.14496098
333,1435990460762,-0.10792394,-0.15688613,0.14282295
334,1435990460784,-0.10884024,-0.15291551,0.14343381
335,1435990460803,-0.10761851,-0.15596983,0.1422121
336,1435990460823,-0.10334245,-0.15474811,0.14251752
337,1435990460841,-0.103037015,-0.15444267,0.14282295
338,1435990460861,-0.10059356,-0.1565807,0.14037949
339,1435990460882,-0.10242616,-0.15474811,0.14282295
340,1435990460901,-0.105785914,-0.157497,0.14190665
341,1435990460950,-0.10731308,-0.15627527,0.14037949
342,1435990460962,-0.10731308,-0.16421652,0.14129579
343,1435990460963,-0.108534805,-0.16482738,0.14099035
344,1435990460981,-0.10731308,-0.1593296,0.13732517
345,1435990461004,-0.1122,-0.16055132,0.14099035
346,1435990461020,-0.11097827,-0.16238391,0.14037949
347,1435990461041,-0.11097827,-0.16238391,0.14099035
348,1435990461062,-0.10792394,-0.16604911,0.1376306
349,1435990461082,-0.102731586,-0.15810786,0.13824145
350,1435990461101,-0.099982694,-0.157497,0.13610344
351,1435990461121,-0.10639678,-0.15627527,0.1385469
352,1435990461144,-0.10884024,-0.15413724,0.14343381
353,1435990461162,-0.10364789,-0.15413724,0.14435011
354,1435990461184,-0.10334245,-0.16238391,0.14557184
355,1435990461201,-0.112810865,-0.16604911,0.14526641
356,1435990461223,-0.11953038,-0.17215776,0.14160122
357,1435990461244,-0.11678149,-0.17307407,0.13793603
358,1435990461264,-0.10914567,-0.16757628,0.13915776
359,1435990461285,-0.10486962,-0.15902416,0.13640887
360,1435990461302,-0.10028812,-0.15413724,0.13060564
361,1435990461323,-0.0963175,-0.14466883,0.13610344
362,1435990461342,-0.102731586,-0.15169378,0.14526641
363,1435990461363,-0.1103674,-0.157497,0.14068492
364,1435990461381,-0.114338025,-0.15505354,0.14648814
365,1435990461410,-0.11189456,-0.15688613,0.14954247
366,1435990461423,-0.11372717,-0.15871873,0.14557184
367,1435990461443,-0.10761851,-0.15780243,0.14373925
368,1435990461461,-0.09876096,-0.15505354,0.13915776
369,1435990461483,-0.10334245,-0.15138835,0.14282295
370,1435990461508,-0.101204425,-0.15169378,0.13915776
371,1435990461523,-0.09753923,-0.15077749,0.14312838
372,1435990461542,-0.10548048,-0.157497,0.14465554
373,1435990461562,-0.11647606,-0.16177306,0.14496098
374,1435990461582,-0.11708692,-0.16207848,0.14496098
375,1435990461603,-0.11739235,-0.16360566,0.14190665
376,1435990461624,-0.11342173,-0.16727084,0.14343381
377,1435990461694,-0.10822938,-0.16391109,0.14435011
378,1435990461695,-0.10609135,-0.1611622,0.14282295
379,1435990461696,-0.112505436,-0.15780243,0.1385469
380,1435990461705,-0.10639678,-0.15322094,0.14251752
