id,attr_time,attr_x,attr_y,attr_z
1,1436898151013,-0.13189378,0.09064708,0.00025231368
2,1436898151031,-0.112651534,0.14104347,0.0045283707
3,1436898151052,-0.09768534,0.1282153,0.022854328
4,1436898151072,-0.1114298,0.079956934,0.022548895
5,1436898151091,-0.10898634,0.05124627,0.025603222
6,1436898151109,-0.120287344,0.073848285,0.00330664
7,1436898151135,-0.101045094,0.12332837,0.00330664
8,1436898151154,-0.11081894,0.13707283,0.002390342
9,1436898151175,-0.10898634,0.11721972,0.016440243
10,1436898151189,-0.11356783,0.07781891,0.022854328
11,1436898151211,-0.114178695,0.061020114,0.016440243
12,1436898151291,-0.12486884,0.080873236,0.012469619
13,1436898151292,-0.12181451,0.112943664,0.011247888
14,1436898151293,-0.11356783,0.11935775,0.013996781
15,1436898151294,-0.11020807,0.10897304,0.015829379
16,1436898151309,-0.10898634,0.09186881,0.013080483
17,1436898151335,-0.12364711,0.091257945,0.0088044265
18,1436898151349,-0.12089822,0.10714044,0.009415292
19,1436898151376,-0.109902635,0.108667605,0.010942455
20,1436898151391,-0.09951793,0.10103179,0.021327166
21,1436898151412,-0.10073966,0.080873236,0.023770627
22,1436898151430,-0.10715374,0.0674342,0.025908655
23,1436898151450,-0.11478956,0.07415372,0.021632599
24,1436898151475,-0.12486884,0.09370141,0.0088044265
25,1436898151492,-0.11753845,0.10744587,0.009415292
26,1436898151513,-0.12059278,0.11324909,0.010637023
27,1436898151531,-0.12364711,0.10561328,0.007888129
28,1436898151552,-0.11356783,0.10775131,0.0088044265
29,1436898151573,-0.0992125,0.116303414,0.009720725
30,1436898151593,-0.10501572,0.12210664,0.013691349
31,1436898151613,-0.108070046,0.1095839,0.011858753
32,1436898151629,-0.11448413,0.10378069,0.012775051
33,1436898151653,-0.12883946,0.10042092,0.004222938
34,1436898151671,-0.12334168,0.102558956,0.010026157
35,1436898151693,-0.112651534,0.102558956,0.014302214
36,1436898151709,-0.106848314,0.09675573,0.018578272
37,1436898151733,-0.10348855,0.09034164,0.017661974
38,1436898151752,-0.10715374,0.09186881,0.013691349
39,1436898151772,-0.116927594,0.09675573,0.010637023
40,1436898151796,-0.12242538,0.10500242,0.01033159
41,1436898151816,-0.11723302,0.09675573,0.019800002
42,1436898151834,-0.1132624,0.09034164,0.010637023
43,1436898151851,-0.11662216,0.104086116,0.013080483
44,1436898151870,-0.120287344,0.10622414,0.011858753
45,1436898151891,-0.12059278,0.10775131,0.008498995
46,1436898151913,-0.11356783,0.11172193,0.012775051
47,1436898151930,-0.112651534,0.10225352,0.01155332
48,1436898151982,-0.11081894,0.09797746,0.010637023
49,1436898151994,-0.10776462,0.09370141,0.014302214
50,1436898151995,-0.11020807,0.091563374,0.013385916
51,1436898152010,-0.11173524,0.085454725,0.015829379
52,1436898152033,-0.11051351,0.10530785,0.012469619
53,1436898152078,-0.11020807,0.12180121,0.011858753
54,1436898152079,-0.11173524,0.117525145,0.02193803
55,1436898152118,-0.108680904,0.09064708,0.02193803
56,1436898152119,-0.11906562,0.0824004,0.0146076465
57,1436898152133,-0.12211995,0.08759275,0.005750101
58,1436898152155,-0.11906562,0.10225352,0.00330664
59,1436898152172,-0.10898634,0.09797746,0.009109859
60,1436898152190,-0.101045094,0.10836217,0.0207163
61,1436898152213,-0.11173524,0.10530785,0.028657548
62,1436898152246,-0.11448413,0.089730784,0.018578272
63,1436898152251,-0.109597206,0.08850905,0.008498995
64,1436898152283,-0.10501572,0.09492314,0.0048338026
65,1436898152290,-0.10562658,0.10622414,0.008193562
66,1436898152310,-0.105321154,0.10500242,0.02407606
67,1436898152330,-0.101045094,0.09675573,0.028046682
68,1436898152350,-0.1123461,0.079651505,0.024686923
69,1436898152370,-0.114178695,0.07781891,0.010026157
70,1436898152390,-0.11631672,0.098282896,-0.007688935
71,1436898152410,-0.11937106,0.11324909,-0.013492155
72,1436898152430,-0.12517427,0.12241207,-0.0122704245
73,1436898152450,-0.12273081,0.13401851,-0.0031074453
74,1436898152470,-0.12517427,0.14287606,0.00086317887
75,1436898152490,-0.121203646,0.15326077,-0.0034128777
76,1436898152510,-0.1132624,0.1553988,-0.004023743
77,1436898152530,-0.11937106,0.16700524,-0.009826963
78,1436898152550,-0.11906562,0.17647365,-0.020517103
79,1436898152576,-0.119676486,0.17005956,-0.0223497
80,1436898152596,-0.12883946,0.16792153,-0.024487728
81,1436898152614,-0.12242538,0.17861167,-0.027847487
82,1436898152636,-0.11784389,0.18227686,-0.016851913
83,1436898152678,-0.1132624,0.1853312,-0.0061617717
84,1436898152679,-0.11204067,0.1712813,-0.0046346085
85,1436898152691,-0.115400426,0.15417707,-0.008605232
86,1436898152710,-0.1132624,0.14226519,-0.013186722
87,1436898152730,-0.11204067,0.14776298,-0.022655133
88,1436898152751,-0.119981915,0.16120201,-0.026320323
89,1436898152771,-0.119676486,0.18930182,-0.028458351
90,1436898152792,-0.121203646,0.18655293,-0.022655133
91,1436898152811,-0.12486884,0.17525192,-0.018684508
92,1436898152834,-0.13311552,0.18838552,-0.01654648
93,1436898152854,-0.13433725,0.18716379,-0.015630182
94,1436898152874,-0.13219923,0.18472032,-0.013186722
95,1436898152890,-0.12364711,0.17891711,-0.012881289
96,1436898152914,-0.11509499,0.15784226,-0.01410302
97,1436898152934,-0.108680904,0.15631509,-0.008910665
98,1436898152954,-0.10929178,0.14531952,-0.0122704245
99,1436898152972,-0.10593201,0.12760442,-0.0043291757
100,1436898152994,-0.10165596,0.10683501,-0.0006639842
101,1436898153014,-0.10898634,0.09064708,-0.0037183105
102,1436898153031,-0.118454754,0.10378069,-0.013186722
103,1436898153055,-0.11601129,0.124550104,-0.015935615
104,1436898153073,-0.109902635,0.11508169,-0.005856339
105,1436898153093,-0.10898634,0.09919919,0.0088044265
106,1436898153114,-0.11448413,0.08484386,0.013691349
107,1436898153133,-0.11204067,0.085454725,0.01155332
108,1436898153155,-0.113873266,0.09492314,0.011247888
109,1436898153176,-0.11020807,0.097061165,0.015829379
110,1436898153191,-0.11204067,0.09431227,0.017356541
111,1436898153212,-0.11601129,0.08789819,0.01155332
112,1436898153231,-0.11570586,0.08881448,0.012775051
113,1436898153253,-0.1123461,0.08789819,0.011247888
114,1436898153272,-0.11112437,0.079956934,0.013080483
115,1436898153292,-0.10471028,0.07537545,0.015523945
116,1436898153312,-0.116927594,0.07842977,0.015523945
117,1436898153386,-0.11876018,0.07629175,0.023465194
118,1436898153387,-0.12334168,0.07781891,0.017356541
119,1436898153388,-0.119676486,0.10072635,0.0146076465
120,1436898153394,-0.106542885,0.102558956,0.01827284
121,1436898153413,-0.0992125,0.09003621,0.017051108
122,1436898153434,-0.10745918,0.07598631,0.017967407
123,1436898153451,-0.116927594,0.06865593,0.015829379
124,1436898153476,-0.12181451,0.07445915,0.009415292
125,1436898153493,-0.115400426,0.0833167,0.007888129
126,1436898153512,-0.10929178,0.089730784,0.010942455
127,1436898153533,-0.10501572,0.08728732,0.0146076465
128,1436898153553,-0.10776462,0.07690261,0.016440243
129,1436898153575,-0.109902635,0.07537545,0.017051108
130,1436898153595,-0.11295697,0.07171026,0.012469619
131,1436898153615,-0.11020807,0.08056781,0.008498995
132,1436898153635,-0.10929178,0.09950463,0.009720725
133,1436898153654,-0.102266826,0.09767203,0.006055533
134,1436898153675,-0.103793986,0.091563374,0.0045283707
135,1436898153695,-0.10898634,0.08911991,-5.3118914e-05
136,1436898153715,-0.11448413,0.10378069,0.00025231368
137,1436898153736,-0.120287344,0.11508169,0.0005577463
138,1436898153755,-0.11570586,0.11783059,0.0045283707
139,1436898153772,-0.11662216,0.12852073,0.009415292
140,1436898153794,-0.121203646,0.13249135,0.009720725
141,1436898153815,-0.121203646,0.12882616,0.00330664
142,1436898153833,-0.114178695,0.11202736,0.004222938
143,1436898153854,-0.119981915,0.11019477,-0.0043291757
144,1436898153873,-0.11937106,0.12668812,-0.0037183105
145,1436898153892,-0.11112437,0.12852073,0.01033159
146,1436898153916,-0.11356783,0.13401851,0.010637023
147,1436898153935,-0.126396,0.15998028,0.007582696
148,1436898153955,-0.13342094,0.17555735,0.018578272
149,1436898153974,-0.14716542,0.17555735,0.02193803
150,1436898153993,-0.14685999,0.1694487,0.013996781
151,1436898154014,-0.13739158,0.20335172,-0.0009694168
152,1436898154034,-0.13128293,0.28123704,-0.02021167
153,1436898154053,-0.12792316,0.30872598,-0.02021167
154,1436898154139,-0.14075133,0.29528695,-0.017157346
155,1436898154141,-0.14441653,0.3023119,-0.017157346
156,1436898154143,-0.15327407,0.28490224,-0.019600807
157,1436898154163,-0.17618152,0.29528695,-0.031207247
158,1436898154164,-0.19175859,0.28612396,-0.025404027
159,1436898154200,-0.20428132,0.25252637,-0.012575856
160,1436898154286,-0.18045758,0.20946036,-0.007383502
161,1436898154287,-0.13219923,0.20487888,-0.0031074453
162,1436898154288,-0.10898634,0.22625916,0.011858753
163,1436898154289,-0.10318312,0.256497,0.042402014
164,1436898154290,-0.09249298,0.21740161,0.0787485
165,1436898154365,-0.083330005,0.14226519,0.10532114
166,1436898154366,-0.06347688,0.07048853,0.12731229
167,1436898154367,-0.047594383,-0.009229388,0.13067205
168,1436898154368,-0.03782054,-0.053517114,0.12975575
169,1436898154404,-0.0420966,-0.094445094,0.13952959
170,1436898154405,-0.057062797,-0.08894731,0.14288935
171,1436898154426,-0.06866924,-0.07825716,0.14930344
172,1436898154435,-0.05370304,-0.07337025,0.14930344
173,1436898154452,-0.04087487,-0.087420136,0.13922416
174,1436898154472,-0.03782054,-0.11674167,0.12853402
175,1436898154492,-0.041180298,-0.14331432,0.11967647
176,1436898154513,-0.07416702,-0.16897066,0.09676903
177,1436898154534,-0.09188212,-0.20776059,0.076915905
178,1436898154552,-0.095241874,-0.21509098,0.083940856
179,1436898154573,-0.08455173,-0.24471794,0.10990263
180,1436898154594,-0.067447506,-0.2593787,0.11967647
181,1436898154615,-0.06897467,-0.22303222,0.11601128
182,1436898154633,-0.080581106,-0.17477387,0.10440484
183,1436898154653,-0.114178695,-0.12926441,0.066836625
184,1436898154676,-0.14380567,-0.06756702,0.036904227
185,1436898154694,-0.15083061,0.046053916,-0.00035855162
186,1436898154716,-0.15174691,0.17830624,-0.013186722
187,1436898154732,-0.15327407,0.2696306,0.013385916
188,1436898154753,-0.13708614,0.17464106,0.054313887
189,1436898154773,-0.10165596,0.040861562,0.05950624
190,1436898154794,-0.0683638,-0.025722746,0.056146484
191,1436898154812,-0.043012895,-0.06115293,0.053092156
192,1436898154832,-0.05064871,-0.074286535,0.06347687
193,1436898154854,-0.05400847,-0.069705054,0.06744749
194,1436898154873,-0.06653121,-0.07184307,0.0478998
195,1436898154893,-0.08760606,-0.07367568,0.036598794
196,1436898154915,-0.121509075,-0.072759375,0.015523945
197,1436898154932,-0.1450274,-0.07886803,-0.011964992
198,1436898154952,-0.13433725,-0.06512356,-0.026625756
199,1436898154973,-0.12089822,-0.0031207353,-0.021433402
200,1436898154993,-0.10409942,0.050635405,-0.01532475
201,1436898155013,-0.09279841,0.09186881,0.0005577463
202,1436898155034,-0.12242538,0.06896137,0.025297789
203,1436898155054,-0.15846643,0.024979066,0.03232274
204,1436898155075,-0.17343262,0.03597464,0.028352115
205,1436898155094,-0.15785556,0.060714684,0.016440243
206,1436898155117,-0.108375475,0.07171026,-0.011354126
207,1436898155137,-0.06103342,0.10683501,-0.037621334
208,1436898155157,-0.06408775,0.15203904,-0.05350383
209,1436898155173,-0.097990766,0.18563662,-0.059612483
210,1436898155197,-0.12853403,0.16303462,-0.048006043
211,1436898155216,-0.1273123,0.097061165,-0.04067566
212,1436898155237,-0.0992125,0.0543006,-0.061445076
213,1436898155283,-0.0711127,0.047886513,-0.08221449
214,1436898155284,-0.034460783,0.07476458,-0.0925992
215,1436898155297,-0.024992377,0.09858833,-0.070913486
216,1436898155316,-0.026519537,0.10622414,-0.029680083
217,1436898155333,-0.021021754,0.103169814,0.021021733
218,1436898155357,-0.035377078,0.057354923,0.040569417
219,1436898155376,-0.06378231,-0.037634622,0.05095413
220,1436898155396,-0.11876018,-0.0907799,0.033849902
221,1436898155416,-0.14594369,-0.06726159,0.017356541
222,1436898155437,-0.16793483,-0.03671832,-0.007994367
223,1436898155457,-0.15907729,0.047886513,-0.037926767
224,1436898155477,-0.14747085,0.17067042,-0.056863587
225,1436898155497,-0.13983503,0.2696306,-0.07610584
226,1436898155516,-0.1358644,0.3386584,-0.08374166
227,1436898155535,-0.13464269,0.35087568,-0.08465795
228,1436898155555,-0.13281009,0.30750427,-0.07610584
229,1436898155574,-0.13067205,0.21617988,-0.05625272
230,1436898155594,-0.12456341,0.10378069,-0.02357143
231,1436898155629,-0.12883946,0.037807237,-0.0009694168
232,1436898155633,-0.12517427,0.011540029,0.023770627
233,1436898155653,-0.103793986,-0.015338037,0.054313887
234,1436898155674,-0.08149741,-0.011367414,0.06592033
235,1436898155694,-0.090660386,0.006347675,0.062866
236,1436898155716,-0.10440485,0.033225745,0.050343264
237,1436898155737,-0.119676486,0.035669208,0.04209658
238,1436898155753,-0.12273081,0.03261488,0.03720966
239,1436898155776,-0.10501572,0.015816089,0.026214087
240,1436898155798,-0.08852236,0.026811661,0.018883705
241,1436898155814,-0.08149741,0.040250696,0.011247888
242,1436898155837,-0.105321154,0.050635405,-0.0052454732
243,1436898155855,-0.12761773,0.08423299,-0.022960564
244,1436898155877,-0.13647528,0.11324909,-0.039148495
245,1436898155897,-0.13372639,0.13737828,-0.04189739
246,1436898155917,-0.12761773,0.15600966,-0.037926767
247,1436898155937,-0.121509075,0.14287606,-0.03517787
248,1436898155955,-0.12883946,0.13890544,-0.03273441
249,1436898155977,-0.1273123,0.12699357,-0.022655133
250,1436898155997,-0.12761773,0.108667605,-0.01410302
251,1436898156017,-0.12181451,0.09431227,-0.0052454732
252,1436898156034,-0.11204067,0.08850905,0.009415292
253,1436898156057,-0.10776462,0.073848285,0.02407606
254,1436898156076,-0.10501572,0.048191946,0.035377063
255,1436898156096,-0.10135053,0.037807237,0.034460764
256,1436898156116,-0.09768534,0.07476458,0.029268414
257,1436898156136,-0.08149741,0.09614487,0.024381492
258,1436898156158,-0.093714714,0.08698189,0.020410867
259,1436898156178,-0.105321154,0.090952516,0.0088044265
260,1436898156198,-0.12670143,0.104391545,0.0066663986
261,1436898156217,-0.14166763,0.10164265,0.00086317887
262,1436898156237,-0.14441653,0.10897304,-0.0012748495
263,1436898156255,-0.12578514,0.10194808,-0.0018857147
264,1436898156276,-0.112651534,0.09400684,-0.0037183105
265,1436898156295,-0.1001288,0.09614487,-0.01410302
266,1436898156315,-0.097990766,0.109889336,-0.013492155
267,1436898156367,-0.11173524,0.13554567,-0.0067726364
268,1436898156368,-0.11784389,0.14012717,0.0051392354
269,1436898156375,-0.11356783,0.114470825,0.027435819
270,1436898156394,-0.11631672,0.091257945,0.031711873
271,1436898156414,-0.11570586,0.08606559,0.029268414
272,1436898156435,-0.10715374,0.08637102,0.021021733
273,1436898156454,-0.10135053,0.0824004,0.013996781
274,1436898156479,-0.10073966,0.07751348,0.009109859
275,1436898156494,-0.10440485,0.10194808,0.0048338026
276,1436898156515,-0.09707447,0.11508169,0.021632599
277,1436898156535,-0.0973799,0.10378069,0.025297789
278,1436898156555,-0.0973799,0.0833167,0.022548895
279,1436898156576,-0.113873266,0.06010382,0.0146076465
280,1436898156598,-0.1123461,0.053078867,0.0045283707
281,1436898156618,-0.11784389,0.06040925,0.0017794769
282,1436898156638,-0.10776462,0.0656016,-5.3118914e-05
283,1436898156657,-0.10196139,0.068045065,0.0066663986
284,1436898156675,-0.109902635,0.06437987,0.016440243
285,1436898156698,-0.1132624,0.05704949,0.024381492
286,1436898156718,-0.11356783,0.05552233,0.030490143
287,1436898156738,-0.11081894,0.050329972,0.030490143
288,1436898156758,-0.10593201,0.044526756,0.028962981
289,1436898156776,-0.10593201,0.05002454,0.024686923
290,1436898156798,-0.1114298,0.051857136,0.022548895
291,1436898156818,-0.114178695,0.055216897,0.025603222
292,1436898156837,-0.1123461,0.068045065,0.025603222
293,1436898156858,-0.11631672,0.08301126,0.020410867
294,1436898156875,-0.12181451,0.09034164,0.022243463
295,1436898156896,-0.11509499,0.079346076,0.021021733
296,1436898156916,-0.115400426,0.07781891,0.016134812
297,1436898156937,-0.11448413,0.07751348,0.014302214
298,1436898156958,-0.109902635,0.08698189,0.017967407
299,1436898156977,-0.10776462,0.08026237,0.013691349
300,1436898156997,-0.10471028,0.07720804,0.009415292
301,1436898157015,-0.1132624,0.0833167,0.01033159
302,1436898157042,-0.119981915,0.08026237,0.009109859
303,1436898157116,-0.12334168,0.083927564,0.008193562
304,1436898157117,-0.11509499,0.09492314,0.021327166
305,1436898157118,-0.1114298,0.10347525,0.025908655
306,1436898157119,-0.11051351,0.10164265,0.024992356
307,1436898157135,-0.11295697,0.10042092,0.027130386
308,1436898157155,-0.1132624,0.097061165,0.01827284
309,1436898157175,-0.11204067,0.09217425,0.012164186
310,1436898157196,-0.106542885,0.09461771,0.012775051
311,1436898157217,-0.11081894,0.09461771,0.007888129
312,1436898157260,-0.1114298,0.09492314,0.0051392354
313,1436898157261,-0.11723302,0.10836217,0.0020849092
314,1436898157276,-0.11876018,0.11263823,0.009415292
315,1436898157296,-0.112651534,0.104391545,0.010942455
316,1436898157315,-0.112651534,0.092785105,0.011858753
317,1436898157335,-0.11570586,0.09309054,0.013996781
318,1436898157355,-0.11723302,0.098282896,0.013385916
319,1436898157377,-0.11723302,0.09797746,0.006360966
320,1436898157397,-0.10898634,0.09797746,0.010026157
321,1436898157415,-0.11081894,0.0833167,0.015523945
322,1436898157435,-0.11356783,0.08514929,0.015523945
323,1436898157455,-0.11448413,0.09309054,0.015218512
324,1436898157475,-0.109597206,0.091563374,0.016134812
325,1436898157495,-0.108070046,0.091257945,0.016440243
326,1436898157515,-0.10715374,0.07659718,0.015523945
327,1436898157535,-0.108680904,0.081178665,0.01155332
328,1436898157555,-0.11478956,0.085454725,0.014913079
329,1436898157575,-0.121203646,0.091563374,0.017051108
330,1436898157596,-0.11662216,0.08606559,0.022243463
331,1436898157619,-0.115400426,0.08301126,0.021327166
332,1436898157637,-0.108070046,0.09217425,0.023159761
333,1436898157659,-0.09982336,0.08881448,0.020105435
334,1436898157679,-0.106848314,0.091257945,0.015218512
335,1436898157697,-0.11662216,0.08789819,0.01827284
336,1436898157718,-0.11784389,0.0824004,0.018883705
337,1436898157740,-0.1114298,0.073848285,0.017967407
338,1436898157757,-0.103793986,0.073848285,0.020105435
339,1436898157779,-0.10440485,0.08728732,0.024992356
340,1436898157837,-0.112651534,0.0833167,0.022854328
341,1436898157849,-0.119676486,0.07690261,0.021327166
342,1436898157850,-0.11570586,0.07537545,0.0207163
343,1436898157859,-0.1132624,0.083927564,0.016745675
344,1436898157877,-0.11051351,0.09889376,0.0146076465
345,1436898157898,-0.11356783,0.104086116,0.013996781
346,1436898157916,-0.11448413,0.098282896,0.017051108
347,1436898157936,-0.113873266,0.08301126,0.0146076465
348,1436898157957,-0.109597206,0.07262655,0.012164186
349,1436898157978,-0.10776462,0.08056781,0.011247888
350,1436898157997,-0.11937106,0.099810064,0.009415292
351,1436898158017,-0.11753845,0.10836217,0.01827284
352,1436898158037,-0.11051351,0.0973666,0.019494569
353,1436898158059,-0.11295697,0.080873236,0.022243463
354,1436898158079,-0.109597206,0.08209497,0.017661974
355,1436898158099,-0.1114298,0.08881448,0.005750101
356,1436898158116,-0.118454754,0.105918705,0.00086317887
357,1436898158137,-0.11784389,0.10652958,0.0048338026
358,1436898158159,-0.11601129,0.09522857,0.0072772633
359,1436898158179,-0.115400426,0.09186881,0.011247888
360,1436898158199,-0.108070046,0.09431227,0.013080483
361,1436898158216,-0.10745918,0.10072635,0.01155332
362,1436898158237,-0.113873266,0.09461771,0.008498995
363,1436898158256,-0.114178695,0.09370141,0.0005577463
364,1436898158277,-0.11662216,0.089730784,-0.00249658
365,1436898158299,-0.11448413,0.08637102,0.00086317887
366,1436898158317,-0.11723302,0.09492314,0.0030012073
367,1436898158337,-0.11081894,0.10805674,0.004222938
368,1436898158359,-0.103793986,0.105918705,0.013691349
369,1436898158379,-0.11081894,0.09767203,0.010026157
370,1436898158399,-0.11937106,0.10103179,0.002390342
371,1436898158417,-0.118454754,0.10622414,-0.0006639842
372,1436898158439,-0.115400426,0.108667605,-0.0082998
373,1436898158460,-0.11051351,0.105918705,-0.00952153
374,1436898158479,-0.10593201,0.10072635,-0.010132396
