id,attr_time,attr_x,attr_y,attr_z
1,1436893598028,0.0030012093,-0.05484508,0.08334327
2,1436893598048,0.0011686124,-0.070116706,0.082121536
3,1436893598068,0.003917508,-0.061259165,0.07204226
4,1436893598089,0.0011686124,-0.04934729,0.06532274
5,1436893598106,-0.0031074435,-0.042933207,0.06074125
6,1436893598127,-0.010437828,-0.06095373,0.0677662
7,1436893598148,-0.010437828,-0.072865605,0.06990423
8,1436893598167,-0.008910663,-0.06400806,0.06257384
9,1436893598188,-0.0046346076,-0.055455945,0.057686925
10,1436893598208,0.0033066422,-0.067062385,0.050661974
11,1436893598227,0.0020849109,-0.09730022,0.055854328
12,1436893598248,0.003612075,-0.11868049,0.053410865
13,1436893598268,0.0124696195,-0.134563,0.060130384
14,1436893598288,0.022243463,-0.15869217,0.055243462
15,1436893598308,0.031711876,-0.18373764,0.056770626
16,1436893598326,0.032933608,-0.20725596,0.059214085
17,1436893598347,0.02987928,-0.21916783,0.0677662
18,1436893598369,0.030184709,-0.20603423,0.082121536
19,1436893598429,0.019800004,-0.21092115,0.09525514
20,1436893598430,-5.3118914e-05,-0.21733524,0.105334416
21,1436893598431,-0.0024965778,-0.21122658,0.11235936
22,1436893598455,-0.0082998,-0.20878312,0.10899961
23,1436893598465,-0.0067726355,-0.25368172,0.0967823
24,1436893598490,-0.005856339,-0.28239238,0.0976986
25,1436893598506,-0.015324749,-0.306827,0.13465595
26,1436893598528,0.009415295,-0.4241131,0.1511493
27,1436893598547,0.055535622,-0.59729344,0.15664709
28,1436893598566,0.088827774,-0.61775744,0.16122858
29,1436893598588,0.10409941,-0.61439764,0.16275574
30,1436893598610,0.09707445,-0.6315019,0.17863825
31,1436893598628,0.07569417,-0.63455623,0.19085555
32,1436893598648,0.045150913,-0.6211172,0.19024467
33,1436893598668,0.020105436,-0.58263266,0.170697
34,1436893598688,0.0023903437,-0.48703223,0.15511993
35,1436893598707,-0.012270423,-0.43419242,0.12549296
36,1436893598727,-0.0223497,-0.4091469,0.10472354
37,1436893598746,-0.023265997,-0.42380768,0.094338834
38,1436893598768,-0.026931189,-0.45465636,0.10502898
39,1436893598789,-0.0223497,-0.5178809,0.12427124
40,1436893598811,-0.021127969,-0.56125236,0.14717868
41,1436893598827,-0.018073643,-0.6290584,0.16581008
42,1436893598846,-0.00035855174,-0.6980862,0.159396
43,1436893598868,-0.00066398457,-0.7301566,0.15542537
44,1436893598889,-0.024182295,-0.7344327,0.15328734
45,1436893598909,-0.04586801,-0.72374254,0.14565152
46,1436893598929,-0.07060805,-0.65166044,0.13160162
47,1436893598948,-0.079771034,-0.5737751,0.12640926
48,1436893598968,-0.0953481,-0.50566363,0.12457667
49,1436893598989,-0.09015574,-0.46840084,0.11907888
50,1436893599009,-0.1084817,-0.460765,0.118773445
51,1436893599029,-0.17262255,-0.40425998,0.116940856
52,1436893599048,-0.2132451,-0.33065075,0.11938432
53,1436893599067,-0.22973844,-0.28575215,0.12457667
54,1436893599087,-0.23370907,-0.23016341,0.12793642
55,1436893599116,-0.23431994,-0.20450705,0.13129619
56,1436893599190,-0.22912759,-0.19717668,0.13679397
57,1436893599191,-0.22912759,-0.17304751,0.14595695
58,1436893599192,-0.24287206,-0.1431151,0.13923743
59,1436893599193,-0.25692195,-0.14952919,0.13954288
60,1436893599206,-0.2508133,-0.15685958,0.12518753
61,1436893599236,-0.26455778,-0.16785514,0.111443065
62,1436893599247,-0.29907167,-0.18740284,0.11632998
63,1436893599267,-0.33297467,-0.23688293,0.12091148
64,1436893599288,-0.34397024,-0.26223382,0.11816259
65,1436893599306,-0.34366482,-0.25948495,0.123049505
66,1436893599328,-0.33175296,-0.21367005,0.12518753
67,1436893599349,-0.3183139,-0.10157627,0.111443065
68,1436893599367,-0.32411712,0.011128366,0.11785715
69,1436893599390,-0.34213766,0.07160403,0.1511493
70,1436893599408,-0.40016985,0.100925565,0.17772195
71,1436893599429,-0.45789662,0.17636742,0.21926078
72,1436893599449,-0.50554407,0.24906038,0.2305618
73,1436893599468,-0.5336439,0.29518068,0.20918152
74,1436893599489,-0.5339494,0.31992078,0.18108171
75,1436893599509,-0.5119582,0.2832688,0.15847969
76,1436893599530,-0.48141494,0.27807647,0.115719125
77,1436893599550,-0.42735335,0.24783866,0.07020966
78,1436893599569,-0.34885716,0.19805314,0.03600121
79,1436893599589,-0.3079292,0.1406318,0.027449094
80,1436893599610,-0.30548576,0.10336903,0.028976258
81,1436893599629,-0.33480728,0.08046158,0.02592193
82,1436893599772,-0.33633444,0.03495211,0.041498996
83,1436893599773,-0.31678674,0.112532005,0.042109862
84,1436893599774,-0.2825783,0.15071107,0.041804425
85,1436893599775,-0.2676121,0.22370948,0.037528373
86,1436893599776,-0.2544785,0.26402658,0.034474045
87,1436893599777,-0.23401451,0.2802145,0.053716302
88,1436893599778,-0.20408212,0.2624994,0.06623904
89,1436893599787,-0.17628774,0.22126602,0.07815091
90,1436893599808,-0.1329163,0.19835858,0.069293365
91,1436893599837,-0.06694286,0.1751457,0.050051108
92,1436893599896,-0.04342455,0.14093724,0.047913082
93,1436893599897,-0.062361374,0.012350097,0.053410865
94,1436893599898,-0.059917912,-0.096078485,0.046080485
95,1436893599909,-0.06327767,-0.16296822,0.053410865
96,1436893599927,-0.06785916,-0.20511793,0.062268414
97,1436893599949,-0.05594729,-0.27933806,0.057992358
98,1436893599968,-0.03762133,-0.35172558,0.028976258
99,1436893599987,-0.03303984,-0.43449783,0.0036253482
100,1436893600007,-0.036705032,-0.50780165,0.0027090535
101,1436893600027,-0.047700606,-0.5392612,-0.0128680095
102,1436893600049,-0.065415695,-0.5643067,-0.035164595
103,1436893600070,-0.07763301,-0.4980278,-0.06204266
104,1436893600087,-0.095653534,-0.38654488,-0.1185477
105,1436893600108,-0.075800404,-0.318128,-0.1692495
106,1436893600130,0.06592033,-0.28117067,-0.23308492
107,1436893600150,0.009415295,-0.27200767,-0.27798352
108,1436893600170,-0.16437587,-0.39082098,-0.33937547
109,1436893600188,-0.1741497,-0.45343465,-0.42153686
110,1436893600210,-0.16193241,-0.5884359,-0.45146924
111,1436893600230,-0.17323342,-0.7133578,-0.47223866
112,1436893600250,-0.17353885,-0.6388323,-0.5018656
113,1436893600270,-0.08954488,-0.4803127,-0.49239725
114,1436893600288,0.088522345,-0.3413409,-0.45635617
115,1436893600308,0.27330908,-0.14983463,-0.4126793
116,1436893600330,0.57446563,-0.06767325,-0.37724912
117,1436893600350,0.8496604,-0.19809297,-0.30730504
118,1436893600372,1.0109289,-0.41525555,-0.16588977
119,1436893600388,1.0365852,-0.680982,-0.051047087
120,1436893600410,0.9727497,-0.95220613,0.016148087
121,1436893600430,0.8673755,-1.0942322,0.08975735
122,1436893600450,0.8670701,-0.9842766,0.16581008
123,1436893600470,0.885396,-0.5685828,0.2934809
124,1436893600488,0.9330436,-0.1617465,0.42756584
125,1436893600510,0.98435616,-0.01788773,0.50453484
126,1436893600528,0.9113579,-0.019720327,0.5873071
127,1436893600548,0.8038455,-0.18312678,0.657862
128,1436893600580,0.7229059,-0.23596662,0.642285
129,1436893600677,0.58515584,-0.19687125,0.5366053
130,1436893600678,0.4251091,-0.11715333,0.43275818
131,1436893600707,0.37196383,0.034035817,0.3194427
132,1436893600708,0.45259804,0.1650664,0.20979238
133,1436893600709,0.572633,0.23592679,0.1099159
134,1436893600710,0.6047034,0.13452315,0.09922576
135,1436893600711,0.6028708,-0.08569377,0.115719125
136,1436893600757,0.49016622,-0.23443946,0.12702012
137,1436893600758,0.3194294,-0.29308254,0.13984829
138,1436893600768,0.2314648,-0.20175818,0.1829143
139,1436893600788,0.19023141,-0.05484508,0.2531638
140,1436893600808,0.19603463,-0.012695372,0.31486118
141,1436893600828,0.2482636,-0.11562617,0.34357187
142,1436893600849,0.27422538,-0.11745876,0.34509903
143,1436893600870,0.22260725,0.011433803,0.29745153
144,1436893600889,0.1508306,0.032814085,0.22811833
145,1436893600909,0.101961374,-0.025218114,0.1239658
146,1436893600931,0.059506245,-0.053012483,0.04119356
147,1436893600951,0.013385918,-0.030715901,-0.03302657
148,1436893600968,-0.017462777,0.050223738,-0.05898834
149,1436893600988,-0.0009694174,0.1723968,-0.043411277
150,1436893601009,0.011858754,0.22096057,-0.0046213344
151,1436893601031,0.06866922,0.112532005,0.013704628
152,1436893601051,0.09615816,0.009906635,0.02225674
153,1436893601068,0.1068483,-0.084777474,0.007290542
154,1436893601089,0.0891332,-0.15624872,0.016758952
155,1436893601116,0.06042254,-0.2188624,0.06318471
156,1436893601129,0.037515096,-0.25215456,0.10777788
157,1436893601151,0.016745675,-0.2967477,0.16306117
158,1436893601169,0.028352119,-0.35783422,0.15970142
159,1436893601189,0.02193803,-0.33278877,0.11297023
160,1436893601210,0.027130388,-0.284225,0.08028894
161,1436893601231,0.031711876,-0.27964348,0.0799835
162,1436893601251,0.004222937,-0.30988133,0.10380725
163,1436893601271,-0.013492154,-0.39937305,0.12030061
164,1436893601290,0.0069718324,-0.4830616,0.110221334
165,1436893601310,0.017967407,-0.522157,0.10472354
166,1436893601330,0.033544473,-0.5368177,0.107167006
167,1436893601350,0.049426965,-0.5847707,0.1099159
168,1436893601379,0.05889538,-0.7133578,0.118773445
169,1436893601452,0.078443065,-0.83186567,0.14107004
170,1436893601453,0.09951791,-0.9268552,0.14809498
171,1436893601454,0.0927984,-0.9439595,0.15267646
172,1436893601455,0.072639845,-0.9238009,0.16764267
173,1436893601468,0.038125962,-0.92044115,0.18505234
174,1436893601491,0.003917508,-0.9238009,0.20154569
175,1436893601508,-0.03273441,-0.9109727,0.2119304
176,1436893601528,-0.053503826,-0.8752371,0.20673805
177,1436893601550,-0.059307046,-0.86699045,0.20398915
178,1436893601570,-0.050754935,-0.8550786,0.19879681
179,1436893601590,-0.039148495,-0.8526351,0.19268814
180,1436893601611,-0.023876863,-0.8569112,0.19665876
181,1436893601630,-0.023876863,-0.8379743,0.21101409
182,1436893601650,-0.040370226,-0.84866446,0.24705514
183,1436893601669,-0.048616905,-0.9060858,0.27087888
184,1436893601691,-0.036094166,-0.94212687,0.28920487
185,1436893601709,-0.018684508,-0.9247172,0.2931755
186,1436893601731,-0.017462777,-0.8712665,0.29836783
187,1436893601749,-0.027236622,-0.8416395,0.32402417
188,1436893601769,-0.0125758555,-0.8590492,0.3447936
189,1436893601792,-0.0223497,-0.8584383,0.36770105
190,1436893601812,-0.039453927,-0.8880653,0.37167168
191,1436893601831,-0.059001613,-0.9109727,0.36250868
192,1436893601855,-0.07793844,-0.8889816,0.3478479
193,1436893601869,-0.12008814,-0.853246,0.3551783
194,1436893601895,-0.12680766,-0.90303147,0.36281413
195,1436893601915,-0.13627607,-0.889287,0.38938677
196,1436893601931,-0.15215856,-0.9051695,0.40038234
197,1436893601949,-0.19155937,-0.9070021,0.39977148
198,1436893601970,-0.21110706,-0.875848,0.36800647
199,1436893601989,-0.2489807,-0.76039445,0.3719771
200,1436893602019,-0.29174128,-0.7026677,0.3411284
201,1436893602035,-0.33328012,-0.66968095,0.34906965
202,1436893602051,-0.39589378,-0.67426246,0.37350425
203,1436893602070,-0.43834892,-0.66571033,0.33868495
204,1436893602090,-0.47041935,-0.5884359,0.29561895
205,1436893602115,-0.47744432,-0.5465916,0.23361611
206,1436893602187,-0.48355296,-0.51055056,0.19024467
207,1436893602188,-0.52387005,-0.5514785,0.1557308
208,1436893602189,-0.57457185,-0.7225208,0.10014206
209,1436893602190,-0.6252737,-0.8718774,0.03172515
210,1436893602209,-0.6747538,-0.8789023,-0.01256258
211,1436893602235,-0.7013264,-0.8630198,-0.03027767
212,1436893602253,-0.75447166,-0.86546326,-0.03882978
213,1436893602269,-0.74500334,-0.9329639,-0.059904642
214,1436893602290,-0.6716994,-1.0248991,-0.10999558
215,1436893602309,-0.5947304,-0.97664076,-0.16466802
216,1436893602332,-0.60083914,-0.9610637,-0.22758713
217,1436893602356,-0.6051152,-0.932353,-0.27737266
218,1436893602369,-0.5156234,-0.70541656,-0.3809143
219,1436893602392,-0.35954732,-0.57805115,-0.4966733
220,1436893602413,-0.2059147,-0.5230733,-0.59685516
221,1436893602432,-0.07488411,-0.5365123,-0.65183306
222,1436893602450,-0.01776821,-0.5136049,-0.68726325
223,1436893602471,-0.08649055,-0.42716742,-0.75018233
224,1436893602492,-0.111536026,-0.3706624,-0.81371236
225,1436893602513,-0.10206761,-0.3734113,-0.79111034
226,1436893602532,-0.07488411,-0.37677103,-0.7456009
227,1436893602550,-0.111536026,-0.25856864,-0.6973425
228,1436893602571,-0.25142416,-0.1794616,-0.5675337
229,1436893602593,-0.37787327,-0.06492435,-0.4975896
230,1436893602613,-0.4728628,0.08137788,-0.4676572
231,1436893602634,-0.52478635,0.28876662,-0.39618593
232,1436893602654,-0.52845156,0.5868688,-0.33509943
233,1436893602674,-0.5018789,0.8006717,-0.2834813
234,1436893602692,-0.48721814,0.9246773,-0.2761509
235,1436893602710,-0.45362055,0.9530826,-0.29142255
236,1436893602729,-0.35435495,0.9433088,-0.3161626
237,1436893602751,-0.22515696,0.84221053,-0.3219658
238,1436893602775,-0.040675655,0.68399644,-0.25935212
239,1436893602795,0.12242536,0.45370024,-0.1842157
240,1436893602815,0.2940785,0.25364184,-0.034248292
241,1436893602831,0.42083302,0.056332394,0.1407646
242,1436893602857,0.46542618,-0.09943824,0.18138713
243,1436893602907,0.43854812,-0.12875977,0.2308672
244,1436893602908,0.32584348,-0.115015306,0.22995093
245,1436893602923,0.18198472,0.044725955,0.18688492
246,1436893602929,0.13342094,0.35993242,0.0106502995
247,1436893602960,0.37593445,0.8944395,-0.28287044
248,1436893602980,0.41258636,1.1360368,-0.19185153
249,1436893602993,-0.018684508,0.70201695,0.099836625
250,1436893603011,-0.16284871,0.6919377,0.5023968
251,1436893603031,0.0143022165,0.6687248,0.7727047
252,1436893603050,0.16182618,0.66628134,0.82768255
253,1436893603070,0.42663625,0.87916785,0.7275007
254,1436893603105,0.7112994,1.103661,0.54179764
255,1436893603110,0.70152557,1.2615696,0.3869433
256,1436893603132,0.47886524,1.8727403,0.39488456
257,1436893603151,0.33317387,2.5761516,0.39671713
258,1436893603172,0.23329741,2.5443866,0.3493751
259,1436893603192,0.20000525,1.9970512,0.29653522
260,1436893603213,0.1966455,1.4833137,0.29042658
261,1436893603232,0.0759996,1.0111148,0.299895
262,1436893603252,-0.019906238,0.7640198,0.29195374
263,1436893603273,-0.01776821,0.89596665,0.29561895
264,1436893603292,0.015829377,1.1665801,0.26415938
265,1436893603313,-0.033650707,1.490644,0.2213988
266,1436893603333,-0.05167123,1.5700566,0.19635335
267,1436893603352,-0.04220282,1.5572283,0.18810666
268,1436893603370,-0.050754935,1.6351137,0.15267646
269,1436893603403,-0.11917184,1.7206348,0.11358109
270,1436893603410,-0.18178552,1.6827612,0.088230185
271,1436893603430,-0.21263422,1.4946147,0.07448572
272,1436893603450,-0.19430827,1.3098279,0.09067365
273,1436893603470,-0.10206761,1.164442,0.13282335
274,1436893603490,-0.0061617717,1.0153909,0.15450907
275,1436893603511,0.011553321,0.9372,0.14107004
276,1436893603533,-0.044035416,0.9185687,0.11968975
277,1436893603552,-0.110008866,0.89413404,0.12121691
278,1436893603574,-0.16315414,0.85931474,0.11358109
279,1436893603593,-0.17017908,0.6873562,0.12549296
280,1436893603612,-0.16743019,0.5832037,0.13648854
281,1436893603641,-0.14727163,0.5331127,0.14229175
282,1436893603715,-0.12802938,0.5126487,0.14015374
283,1436893603716,-0.11856098,0.49340647,0.14015374
284,1436893603717,-0.12650222,0.42132437,0.15878512
285,1436893603718,-0.13413805,0.29243183,0.17680565
286,1436893603733,-0.15887809,0.12261127,0.20857063
287,1436893603760,-0.17628774,-0.061259165,0.22292596
288,1436893603771,-0.16865192,-0.15960847,0.25927246
289,1436893603790,-0.14696622,-0.22008413,0.28279078
290,1436893603812,-0.12680766,-0.23779921,0.29103744
291,1436893603831,-0.123447895,-0.22924711,0.28889942
292,1436893603855,-0.13016742,-0.22619277,0.2812636
293,1436893603871,-0.14391188,-0.23779921,0.2699626
294,1436893603899,-0.15857264,-0.26620445,0.24736059
295,1436893603912,-0.17537144,-0.28330868,0.22750747
296,1436893603934,-0.18545072,-0.25429258,0.21590102
297,1436893603955,-0.19980605,-0.2683425,0.21223584
298,1436893603973,-0.21110706,-0.31201935,0.23269981
299,1436893603994,-0.20683101,-0.35966682,0.25163665
300,1436893604013,-0.18209097,-0.4283892,0.25285837
301,1436893604033,-0.1655976,-0.5139103,0.24644428
302,1436893604055,-0.15429659,-0.56675017,0.21162498
303,1436893604073,-0.1243642,-0.62936383,0.1960479
304,1436893604098,-0.09809699,-0.63486165,0.21040323
305,1436893604115,-0.09779155,-0.54720247,0.21681732
306,1436893604143,-0.07335695,-0.63791597,0.2213988
307,1436893604151,-0.07916017,-0.6101216,0.2580507
308,1436893604171,-0.10267848,-0.5035256,0.26049417
309,1436893604267,-0.12864025,-0.5523948,0.22445312
310,1436893604268,-0.13566521,-0.65838,0.25713444
311,1436893604269,-0.13658151,-0.54170465,0.28279078
312,1436893604270,-0.13047284,-0.5010821,0.27393323
313,1436893604273,-0.07763301,-0.51055056,0.1697807
314,1436893604291,-0.023876863,-0.46901172,0.03386318
315,1436893604311,-0.12130987,-0.1599139,-0.08159035
316,1436893604332,-0.2602817,-0.042627774,-0.074259974
317,1436893604351,-0.3198411,-0.2994966,-0.08342295
318,1436893604413,-0.3125107,-0.4277783,-0.039440647
319,1436893604414,-0.26333603,-0.4088415,-0.0128680095
320,1436893604415,-0.18178552,-0.13609016,-0.034248292
321,1436893604431,-0.11947727,0.15865232,-0.04616017
322,1436893604451,-0.0785493,0.41979724,-0.054101415
323,1436893604477,-0.06999719,0.63543266,-0.08159035
324,1436893604493,-0.06663743,0.7108745,-0.11671511
325,1436893604513,-0.022655133,0.73653084,-0.16894409
326,1436893604533,0.04851067,0.7398906,-0.22422737
327,1436893604553,-0.020822536,0.52425516,-0.24469137
328,1436893604572,-0.117339246,0.34527165,-0.2654608
329,1436893604598,-0.19553,0.3587107,-0.33296138
330,1436893604613,-0.13077828,0.5505224,-0.47101694
331,1436893604632,0.09707445,0.82113564,-0.61426485
332,1436893604655,0.22260725,1.0847241,-0.6267876
333,1436893604674,0.2855264,1.1219869,-0.5024765
334,1436893604700,0.36066282,0.92528814,-0.19979277
335,1436893604763,0.33409017,0.43659598,0.01645352
336,1436893604764,0.2687276,0.044725955,0.20337829
337,1436893604765,0.26170263,0.10795051,0.3447936
338,1436893604771,0.22749418,0.6403196,0.43795055
339,1436893604795,0.101961374,1.0770882,0.52072275
340,1436893604815,0.03690423,1.3648058,0.5873071
341,1436893604833,0.008193564,1.2768412,0.63342744
342,1436893604853,-0.09198834,1.0859458,0.59677553
343,1436893604874,-0.12986198,0.7997554,0.567454
344,1436893604892,-0.10695454,0.6537586,0.48773608
345,1436893604913,0.017356541,0.502264,0.34693164
346,1436893604933,0.1554121,0.40605277,0.19635335
347,1436893604957,0.21619317,0.4790511,0.12946358
348,1436893604977,0.24337667,0.50592923,0.09158994
349,1436893604997,0.22657788,0.4439264,0.07754005
350,1436893605015,0.101655945,0.29304266,0.105334416
351,1436893605033,-0.06785916,0.0703823,0.10166922
352,1436893605051,-0.13413805,-0.134563,0.041804425
353,1436893605074,-0.13688692,-0.17549096,-0.007370226
354,1436893605093,-0.095653534,-0.06492435,-0.06448612
355,1436893605181,-0.06083421,0.039839037,-0.077008866
356,1436893605182,-0.03517787,0.08137788,-0.046465598
357,1436893605183,0.014913082,0.005019717,-0.009508252
358,1436893605184,0.056146488,-0.15258351,0.0039307848
359,1436893605195,0.07325071,-0.25398713,0.016148087
360,1436893605219,0.06439316,-0.36455375,0.012482896
361,1436893605234,0.049732402,-0.42808372,-0.0024833009
362,1436893605254,0.05736821,-0.4839779,0.006068811
363,1436893605274,0.07080725,-0.5279602,0.026838228
364,1436893605293,0.105932,-0.5801892,0.06196298
365,1436893605315,0.13250464,-0.60187495,0.09892033
366,1436893605333,0.15296863,-0.5682773,0.118773445
367,1436893605355,0.15877184,-0.5371232,0.12427124
368,1436893605372,0.14838713,-0.5340689,0.12335494
369,1436893605395,0.14288935,-0.55758715,0.12152234
370,1436893605415,0.16824026,-0.61745197,0.11388653
371,1436893605435,0.1816793,-0.6483007,0.110221334
372,1436893605455,0.18137386,-0.6269204,0.12793642
373,1436893605475,0.17740324,-0.6250878,0.14107004
374,1436893605495,0.18076299,-0.63119644,0.14778954
375,1436893605565,0.18076299,-0.6428029,0.15817425
376,1436893605566,0.1929803,-0.66784835,0.15634167
377,1436893605567,0.20672476,-0.6983916,0.14290263
378,1436893605572,0.21772033,-0.7319892,0.14137545
379,1436893605592,0.21191712,-0.7280186,0.14595695
380,1436893605613,0.20733564,-0.7164121,0.14534609
381,1436893605632,0.22321814,-0.70572203,0.17405675
382,1436893605652,0.23390827,-0.72343713,0.19146642
383,1436893605672,0.26475698,-0.7310729,0.21651188
384,1436893605692,0.29102418,-0.7506206,0.23422697
