id,attr_time,attr_x,attr_y,attr_z
1,1436890975229,-0.02193803,0.049719114,-0.015391149
2,1436890975249,-0.022243463,0.046359356,-0.018750908
3,1436890975270,-0.021632597,0.047581088,-0.015085716
4,1436890975290,-0.03140644,0.0561332,-0.01447485
5,1436890975309,-0.025297789,0.054300603,-0.012642255
6,1436890975329,-0.021327164,0.03841811,-0.010198793
7,1436890975349,-0.020716298,0.027422536,-0.01325312
8,1436890975369,-0.020716298,0.02100845,-0.018445475
9,1436890975389,-0.024381492,0.018564988,-0.013863985
10,1436890975409,-0.0198,0.01062374,-0.0074499007
11,1436890975429,-0.020105433,-0.006785919,-0.007144468
12,1436890975449,-0.013385918,-0.015032601,-0.008977063
13,1436890975470,-0.010026157,-0.007091352,-0.009587929
14,1436890975490,-0.014302213,0.008791145,-0.012031389
15,1436890975510,-0.021327164,0.0054313857,-0.0043955743
16,1436890975529,-0.022854328,0.00023903139,0.0014076456
17,1436890975550,-0.017051108,0.00023903139,0.0032402407
18,1436890975569,-0.014302213,0.0005444642,-0.0028684102
19,1436890975589,-0.016440243,0.0020716265,-0.008977063
20,1436890975610,-0.024686923,0.01062374,-0.008366198
21,1436890975630,-0.026824951,0.021924749,-0.007144468
22,1436890975650,-0.01949457,0.020703018,-0.0059227366
23,1436890975670,-0.014913078,0.013067201,-0.00042494945
24,1436890975689,-0.020410866,0.00084989704,0.0020185113
25,1436890975733,-0.023465194,-0.0037315935,-0.0043955743
26,1436890975734,-0.018578272,0.00084989704,0.002629377
27,1436890975751,-0.012164187,-0.00037183426,0.002629377
28,1436890975768,-0.007277265,-0.008618515,0.0050728377
29,1436890975789,-0.011858754,-0.009840245,-0.00500644
30,1436890975810,-0.016745675,0.0042096544,-0.0028684102
31,1436890975828,-0.015218511,-6.640144e-05,-0.0022575464
32,1436890975848,-0.021021731,0.00023903139,-0.005617304
33,1436890975869,-0.017356541,0.0026824921,-0.0040901415
34,1436890975888,-0.007888131,-0.0006772671,-0.0019521136
35,1436890975908,-0.009415291,-0.0077022174,-0.00500644
36,1436890975928,-0.017661974,0.007263981,-0.0062281694
37,1436890975948,-0.018578272,0.0054313857,-0.0040901415
38,1436890975968,-0.015218511,0.0011553299,-0.005311871
39,1436890975988,-0.013080485,-0.0031207278,-0.017223744
40,1436890976008,-0.013080485,-0.004342458,-0.011115092
41,1436890976028,-0.009415291,-0.012894572,-0.011115092
42,1436890976048,-0.010637023,-0.02083582,-0.0062281694
43,1436890976068,-0.012164187,-0.0153380325,0.0023239441
44,1436890976088,-0.0124696195,-0.008007649,0.006294567
45,1436890976108,-0.0045283698,-0.013200004,-0.005617304
46,1436890976128,-0.013080485,0.006653117,-0.012336822
47,1436890976153,-0.01827284,0.020092152,-0.014169418
48,1436890976171,-0.018578272,0.015510663,-0.019361772
49,1436890976193,-0.024686923,0.014594365,-0.014780283
50,1436890976214,-0.027435817,0.021619316,-0.005617304
51,1436890976233,-0.018883705,0.021619316,-0.004701007
52,1436890976253,-0.011553321,0.010929173,-0.00867163
53,1436890976274,-0.01399678,0.016426962,-0.010504226
54,1436890976293,-0.018578272,0.025284506,-0.008977063
55,1436890976314,-0.01399678,0.025895372,-0.012642255
56,1436890976331,-0.010942455,0.031698592,-0.021194369
57,1436890976370,-0.015218511,0.038723543,-0.012642255
58,1436890976371,-0.007277265,0.029865995,-0.00867163
59,1436890976391,-0.013385918,0.01978672,-0.010809659
60,1436890976413,-0.015523944,0.028949697,-0.021805234
61,1436890976432,-0.023159761,0.039334405,-0.015696581
62,1436890976453,-0.02193803,0.038112678,-0.016307447
63,1436890976469,-0.022243463,0.039028976,-0.016307447
64,1436890976494,-0.026214087,0.047886517,-0.022110665
65,1436890976512,-0.022854328,0.051857147,-0.011115092
66,1436890976530,-0.017967407,0.02925513,-0.018445475
67,1436890976554,-0.014913078,0.020397585,-0.019667204
68,1436890976574,-0.013691351,0.023757342,-0.01661288
69,1436890976590,-0.011247888,0.023146477,-0.010809659
70,1436890976614,-0.01827284,0.021619316,-0.018140042
71,1436890976634,-0.01949457,0.03719638,-0.018750908
72,1436890976652,-0.014607646,0.042388733,-0.019972637
73,1436890976674,-0.011247888,0.042694166,-0.01661288
74,1436890976693,-0.01827284,0.032004025,-0.012031389
75,1436890976714,-0.013691351,0.026200805,-0.008977063
76,1436890976734,-0.0066663995,0.01887042,-0.013863985
77,1436890976752,-0.008193564,0.033531185,-0.012642255
78,1436890976774,-0.009720724,0.038112678,-0.00867163
79,1436890976794,-0.009720724,0.04422133,-0.005311871
80,1436890976812,-0.0069718324,0.032920323,-0.012336822
81,1436890976831,-0.013385918,0.035363782,-0.015085716
82,1436890976850,-0.018883705,0.040556137,-0.019361772
83,1436890976884,-0.025297789,0.047886517,-0.018750908
84,1436890976936,-0.022854328,0.05582777,-0.019667204
85,1436890976937,-0.012164187,0.051857147,-0.008977063
86,1436890976938,-0.0048338026,0.03505835,-0.010504226
87,1436890976957,-0.008498993,0.032920323,-0.004701007
88,1436890976974,-0.013080485,0.025895372,-0.005311871
89,1436890976994,-0.011858754,0.028033398,-0.010504226
90,1436890977012,-0.004222937,0.029560562,-0.014169418
91,1436890977077,-0.0036120713,0.032309458,-0.013558553
92,1436890977078,-0.007582698,0.027727969,-0.018445475
93,1436890977079,-0.013080485,0.039334405,-0.0098933615
94,1436890977097,-0.017051108,0.039334405,-0.00042494945
95,1436890977111,-0.015829377,0.02833883,-0.008977063
96,1436890977133,-0.011858754,0.03047686,-0.013863985
97,1436890977151,-0.012775052,0.021619316,-0.009587929
98,1436890977177,-0.010026157,0.0060422514,-0.0077553326
99,1436890977194,-0.0045283698,-0.007091352,-0.009282496
100,1436890977212,-0.0020849109,-6.640144e-05,-0.008060765
101,1436890977232,-0.009109858,0.008180279,-0.013863985
102,1436890977253,-0.00086317956,-0.0052587558,-0.012031389
103,1436890977273,0.0021911487,-0.010451111,-0.011115092
104,1436890977291,0.007688932,-0.014421735,-0.005311871
105,1436890977314,0.009521529,-0.011978274,-0.00042494945
106,1436890977334,0.007688932,-0.006785919,-0.0040901415
107,1436890977354,0.0018857159,-0.0061750542,-0.00867163
108,1436890977374,-0.00086317956,-0.0061750542,-0.010198793
109,1436890977394,-0.00055774674,0.0032933578,-0.0098933615
110,1436890977414,0.0067726374,0.013983499,-0.0098933615
111,1436890977434,-0.00086317956,0.028644264,-0.012642255
112,1436890977454,-0.0124696195,0.032004025,-0.013863985
113,1436890977476,-0.011553321,0.025284506,-0.011115092
114,1436890977494,-0.0063609667,0.026506238,-0.014780283
115,1436890977515,-0.016745675,0.03414205,-0.01783461
116,1436890977534,-0.029879278,0.036890946,-0.017223744
117,1436890977553,-0.028046682,0.04880282,-0.013863985
118,1436890977574,-0.029268414,0.064379886,-0.011420525
119,1436890977597,-0.024686923,0.06835051,-0.00867163
120,1436890977615,-0.020716298,0.049413685,-0.008366198
121,1436890977636,-0.023770627,0.03994527,-0.01325312
122,1436890977655,-0.026519518,0.053384308,-0.014780283
123,1436890977673,-0.015218511,0.05124628,-0.013863985
124,1436890977694,0.00035855174,0.037501812,-0.0022575464
125,1436890977714,0.005856339,0.02100845,0.002629377
126,1436890977733,-0.00055774674,0.006653117,0.0053782705
127,1436890977752,-0.0023903437,-0.0025098622,0.0029348098
128,1436890977813,-0.0036120713,-0.004342458,-0.0010358151
129,1436890977814,-0.0020849109,0.002987925,-0.00500644
130,1436890977815,-0.0036120713,-0.0040370254,-0.005311871
131,1436890977832,-0.015218511,-0.019003224,-0.0098933615
132,1436890977854,-0.021632597,-0.008007649,-0.009282496
133,1436890977880,-0.017356541,0.006347684,-0.012947687
134,1436890977895,-0.010637023,0.009707443,-0.015085716
135,1436890977912,-0.013385918,0.020397585,-0.01661288
136,1436890977937,-0.023770627,0.024979074,-0.01783461
137,1436890977956,-0.024686923,0.029865995,-0.024248695
138,1436890977985,-0.02193803,0.04330503,-0.021194369
139,1436890978015,-0.020105433,0.06163099,-0.019361772
140,1436890978016,-0.01949457,0.07568088,-0.01661288
141,1436890978038,-0.0026957765,0.076597184,-0.012947687
142,1436890978053,0.0009694174,0.06346358,-0.015085716
143,1436890978075,0.0070780665,0.0420833,-0.012336822
144,1436890978095,-0.0033066384,0.017343257,-0.008977063
145,1436890978145,-0.00086317956,-0.019308656,-0.0034792759
146,1436890978146,0.003718309,-0.041299805,-0.0019521136
147,1436890978153,0.011354126,-0.07489739,-0.0098933615
148,1436890978175,0.009521529,-0.07672999,-0.012336822
149,1436890978195,0.015935615,-0.08833642,-0.013558553
150,1436890978215,0.01807364,-0.087725565,-0.011725957
151,1436890978235,0.015935615,-0.07428653,-0.006839035
152,1436890978257,0.013492152,-0.06390182,-0.000119516626
153,1436890978272,0.018684506,-0.04863019,-0.0059227366
154,1436890978293,0.012881286,-0.025722742,-0.0074499007
155,1436890978315,0.004023742,-0.0095348125,-0.0059227366
156,1436890978335,-0.0045283698,-0.0034261607,-0.0007303823
157,1436890978355,-0.0069718324,0.00482052,-0.0074499007
158,1436890978375,-0.010026157,0.016732391,-0.008977063
159,1436890978394,-0.013385918,0.022535611,-0.009282496
160,1436890978416,-0.01613481,0.02345191,-0.012642255
161,1436890978435,-0.016440243,0.034752917,-0.014169418
162,1436890978456,-0.0045283698,0.05032998,-0.010504226
163,1436890978476,0.0021911487,0.039334405,-0.0040901415
164,1436890978498,0.005550906,0.022841044,-0.005617304
165,1436890978513,0.0046346076,0.013067201,-0.008977063
166,1436890978534,-0.0014740452,0.0075694136,-0.011115092
167,1436890978606,-0.0033066384,0.021924749,-0.008366198
168,1436890978607,-0.009109858,0.030171428,-0.009282496
169,1436890978608,-0.016745675,0.046359356,-0.011725957
170,1436890978615,-0.017356541,0.047581088,-0.013558553
171,1436890978642,-0.019189138,0.058271233,-0.015696581
172,1436890978654,-0.025603222,0.06529617,-0.01783461
173,1436890978674,-0.025908655,0.06193642,-0.019667204
174,1436890978694,-0.017967407,0.0561332,-0.016307447
175,1436890978713,-0.010026157,0.04422133,-0.01783461
176,1436890978736,-0.0048338026,0.045137625,-0.019361772
177,1436890978756,0.0052454732,0.043915894,-0.013863985
178,1436890978773,-0.0011686124,0.04086157,-0.01783461
179,1436890978793,-0.007582698,0.033225756,-0.015696581
180,1436890978813,-0.007277265,0.032920323,-0.012031389
181,1436890978836,-0.015829377,0.030171428,-0.00867163
182,1436890978853,-0.012164187,0.03261489,-0.01783461
183,1436890978873,-0.0063609667,0.037501812,-0.011725957
184,1436890978893,0.00035855174,0.021924749,-0.015085716
185,1436890978916,-0.0020849109,0.014594365,-0.015085716
186,1436890978933,-0.010942455,0.022535611,-0.01691831
187,1436890978956,-0.017051108,0.024979074,-0.014780283
188,1436890978984,-0.021327164,0.022230182,-0.023332397
189,1436890978993,-0.022243463,0.02467364,-0.024248695
190,1436890979015,-0.014607646,0.032309458,-0.019361772
191,1436890979036,-0.0026957765,0.031698592,-0.00867163
192,1436890979054,0.0043291748,0.014594365,-0.012642255
193,1436890979075,-0.0036120713,0.009707443,-0.00867163
194,1436890979098,-0.005750101,0.019175854,-0.010809659
195,1436890979116,-0.0030012056,0.01978672,-0.006839035
196,1436890979138,-0.007888131,0.022841044,-0.014780283
197,1436890979156,-0.01613481,0.033225756,-0.021499801
198,1436890979174,-0.012164187,0.03994527,-0.019972637
199,1436890979195,-0.008498993,0.028644264,-0.021499801
200,1436890979214,-0.011553321,0.033836618,-0.025775857
201,1436890979234,-0.010942455,0.037807245,-0.018445475
202,1436890979306,-0.008193564,0.03505835,-0.00867163
203,1436890979319,-0.006055534,0.025895372,-0.009587929
204,1436890979320,-0.007888131,0.023146477,-0.012642255
205,1436890979321,-0.008498993,0.024979074,-0.013863985
206,1436890979333,-0.006055534,0.027117103,-0.014780283
207,1436890979356,-0.007277265,0.01764869,-0.019361772
208,1436890979374,-0.014913078,0.014594365,-0.022110665
209,1436890979394,-0.017356541,0.028033398,-0.018750908
210,1436890979418,-0.020105433,0.025284506,-0.01783461
211,1436890979433,-0.0198,0.029560562,-0.018750908
212,1436890979458,-0.024992356,0.041472435,-0.01447485
213,1436890979477,-0.022548895,0.052162576,-0.0065336023
214,1436890979494,-0.013080485,0.04422133,-0.0074499007
215,1436890979513,-0.01033159,0.050940845,-0.008060765
216,1436890979537,-0.008498993,0.060103822,-0.011420525
217,1436890979557,-0.0023903437,0.05002455,-0.019056339
218,1436890979576,-0.0030012056,0.032920323,-0.015085716
219,1436890979597,-0.011247888,0.025895372,-0.019361772
220,1436890979617,-0.020410866,0.023757342,-0.025775857
221,1436890979637,-0.020410866,0.021313883,-0.027608454
222,1436890979657,-0.022854328,0.02833883,-0.017529177
223,1436890979677,-0.013691351,0.026200805,-0.0025629774
224,1436890979699,-0.0030012056,0.014899798,0.004156539
225,1436890979714,0.007383503,0.013067201,0.004767405
226,1436890979737,0.0034128763,0.028644264,0.010876058
227,1436890979753,0.0052454732,0.02558994,0.012097789
228,1436890979774,0.007688932,0.027422536,0.0014076456
229,1436890979795,-0.0030012056,0.036585514,0.0001859162
230,1436890979819,-0.01399678,0.03841811,-0.0025629774
231,1436890979838,-0.021327164,0.031698592,-0.0065336023
232,1436890979860,-0.028962981,0.02467364,-0.014780283
233,1436890979879,-0.027130384,0.027727969,-0.0355497
234,1436890979896,-0.026824951,0.043610465,-0.04349095
235,1436890979918,-0.023465194,0.050940845,-0.03280081
236,1436890979936,-0.008804426,0.033836618,-0.023332397
237,1436890979963,0.0034128763,-0.0009826999,-0.013558553
238,1436890980018,-0.005750101,0.009707443,-0.011420525
239,1436890980019,-0.011858754,0.052773442,-0.0059227366
240,1436890980020,-0.0124696195,0.05002455,-0.0034792759
241,1436890980075,0.007383503,0.035363782,-0.0074499007
242,1436890980076,0.026014894,0.026200805,-0.0028684102
243,1436890980077,0.028763786,-0.014421735,0.0029348098
244,1436890980103,0.014408454,-0.048019323,0.016068412
245,1436890980155,0.005856339,-0.03702375,0.044473648
246,1436890980156,0.015630186,-0.074591964,0.07715494
247,1436890980157,0.04006479,-0.11918512,0.10128412
248,1436890980218,0.024182297,-0.17019238,0.117777474
249,1436890980219,0.0092161,-0.19401611,0.14648813
250,1436890980220,0.012575857,-0.17966078,0.12327526
251,1436890980258,-0.021632597,-0.14636862,0.09700806
252,1436890980259,-0.078748494,-0.13537306,0.12816218
253,1436890980273,-0.08241369,-0.047103025,0.12968934
254,1436890980293,-0.06866922,0.008180279,0.0936483
255,1436890980313,-0.051259562,-0.08161691,0.07165715
256,1436890980334,-0.01827284,-0.08008975,0.035005234
257,1436890980355,0.0043291748,0.022841044,0.0215662
258,1436890980377,0.012881286,0.06926681,0.050887734
259,1436890980395,0.04708974,0.047886517,0.082652725
260,1436890980413,0.08679598,0.009402011,0.08326359
261,1436890980435,0.12864026,0.0026824921,0.08082013
262,1436890980453,0.17537144,-0.016559763,0.07012999
263,1436890980475,0.21629941,-0.03030423,0.07135172
264,1436890980494,0.25447848,-0.15064467,0.10830907
265,1436890980517,0.26883382,-0.3302391,0.13243824
266,1436890980537,0.28196743,-0.4466089,0.14343381
267,1436890980557,0.29632276,-0.5400713,0.13365996
268,1436890980576,0.29693362,-0.57733405,0.12785675
269,1436890980597,0.29968253,-0.582221,0.1452664
270,1436890980615,0.3070129,-0.51349866,0.17061731
271,1436890980634,0.31403786,-0.4588262,0.21429418
272,1436890980655,0.30762377,-0.42003626,0.253695
273,1436890980677,0.3051803,-0.40507007,0.27202097
274,1436890980696,0.3097618,-0.42247972,0.2772133
275,1436890980716,0.29082498,-0.4557719,0.28057307
276,1436890980734,0.25386763,-0.50341934,0.29126322
277,1436890980754,0.20988533,-0.52785397,0.32974774
278,1436890980787,0.15399116,-0.5162475,0.38075498
279,1436890980805,0.13352719,-0.5183855,0.4222938
280,1436890980815,0.12039357,-0.46860006,0.42534813
281,1436890980834,0.093210064,-0.37605396,0.38319844
282,1436890980857,0.092599206,-0.25052115,0.32424992
283,1436890980876,0.0916829,-0.0025098622,0.24025594
284,1436890980894,0.009521529,0.07842979,0.18436179
285,1436890980918,-0.11692758,-0.2862568,0.14923704
286,1436890980934,-0.36493888,-0.5923003,0.05180403
287,1436890980955,-0.68350506,-0.76150995,0.02859115
288,1436890980974,-1.0170375,-0.70469946,-0.070979886
289,1436890980999,-1.3838621,-0.7874717,-0.29852718
290,1436890981018,-1.5891129,-0.9688987,-0.7105558
291,1436890981038,-1.8114678,-0.88612646,-1.1005932
292,1436890981055,-2.0179403,-0.40873528,-1.5110947
293,1436890981078,-1.9382223,0.5484906,-2.228556
294,1436890981098,-1.6752448,0.88049585,-2.7013657
295,1436890981117,-1.5310806,-0.06542899,-2.4741237
296,1436890981138,-1.5038972,-1.3500786,-1.8168327
297,1436890981158,-1.5286372,-1.6961337,-1.0633304
298,1436890981177,-1.3053659,-2.0537953,-1.1299148
299,1436890981198,-1.255275,-2.3207433,-1.2676649
300,1436890981215,-1.6755503,-2.324714,-1.34891
301,1436890981235,-1.9788449,-2.1316805,-1.4921578
302,1436890981255,-1.969071,-1.7618018,-1.6063896
303,1436890981279,-1.5536827,-1.074273,-1.6121929
304,1436890981301,-1.1550931,-0.3959071,-1.4387071
305,1436890981320,-0.88264716,-0.18393683,-1.0544729
306,1436890981338,-0.65326726,-0.2703743,-0.7383502
307,1436890981355,-0.31576422,-0.29419804,-0.37335816
308,1436890981375,-0.0020849109,-0.29633605,-0.10702094
309,1436890981395,0.29815534,-0.43133727,0.047527976
310,1436890981417,0.5528862,-0.5513723,0.14648813
311,1436890981435,0.6842222,-0.49486727,0.19230303
312,1436890981487,0.8195289,-0.3219924,0.26163626
313,1436890981488,0.95758444,-0.015948897,0.37189743
314,1436890981507,0.7877639,0.2800153,0.49895743
315,1436890981515,0.4279642,0.44830868,0.48643467
316,1436890981536,0.8592351,0.63004106,0.49773565
317,1436890981560,1.6203731,1.31757,0.7332242
318,1436890981575,1.3335719,0.9183695,0.6733594
319,1436890981596,1.088615,0.3829461,0.8492886
320,1436890981618,1.2285031,0.38630587,0.566458
321,1436890981636,1.0941128,0.5869751,0.37708977
322,1436890981656,1.1347352,0.5393276,0.4943759
323,1436890981677,1.2562975,0.51000607,0.6367075
324,1436890981698,1.1762741,0.41318393,0.7848423
325,1436890981718,1.1176311,0.48434973,0.86181134
326,1436890981738,1.111217,0.6572246,0.84348536
327,1436890981759,1.1393168,0.6969308,0.80439
328,1436890981776,1.1591699,0.8774415,0.7445252
329,1436890981797,1.1405385,1.0426805,0.75246644
330,1436890981816,1.1008322,0.8679731,0.85906243
331,1436890981836,1.070289,0.6560029,0.89815784
332,1436890981856,1.1258777,0.36645272,0.86181134
333,1436890981879,1.1365678,-0.0721485,0.8181345
334,1436890981908,1.0220306,-0.36841816,0.83096266
335,1436890981918,1.0715107,-0.5675602,0.8129421
336,1436890981942,1.1038866,-0.6417804,0.7060407
337,1436890981958,1.0263067,-0.6958419,0.61685437
338,1436890981980,0.8952761,-0.7312721,0.54049623
339,1436890981997,0.7508065,-0.5693928,0.44489583
340,1436890982018,0.6100021,-0.20287366,0.32516623
341,1436890982038,0.48019317,0.07904065,0.26713404
342,1436890982058,0.36046362,0.16425635,0.2976773
343,1436890982079,0.28044027,0.2555807,0.4137417
344,1436890982098,0.2657795,0.43242618,0.4943759
345,1436890982117,0.32258996,0.5344407,0.49743024
346,1436890982138,0.28685436,0.36126038,0.41985035
347,1436890982166,0.0831308,0.20274086,0.21001813
348,1436890982238,-0.19634005,-0.10757868,-0.045323543
349,1436890982239,-0.6508238,-0.57794493,-0.30860645
350,1436890982240,-1.1550931,-0.50555736,-0.4475783
351,1436890982241,-1.4828223,-0.61704034,-0.5856339
352,1436890982257,-1.7549628,-0.5131932,-0.8370049
353,1436890982277,-2.1972291,-0.10849498,-1.3812858
354,1436890982296,-2.7320416,0.170365,-2.1094372
355,1436890982316,-2.8154247,0.16303462,-2.4133427
356,1436890982337,-2.6749258,0.82612884,-2.825982
357,1436890982357,-2.0487888,0.86827856,-2.899286
358,1436890982378,-1.4412835,0.23542215,-1.9994814
359,1436890982397,-1.3805023,-0.2181453,-1.3269188
360,1436890982419,-1.2836802,-1.1017619,-1.1589309
361,1436890982439,-1.2885672,-2.6026576,-1.033398
362,1436890982457,-1.7567954,-3.4700863,-1.0706608
363,1436890982478,-2.3349793,-3.4471788,-1.2178793
364,1436890982498,-2.1193438,-2.2401092,-1.305844
365,1436890982518,-1.6645547,-1.1439116,-1.0712717
366,1436890982539,-1.1752516,-0.7838065,-0.74720776
367,1436890982559,-0.82675296,-0.6008524,-0.4158133
368,1436890982579,-0.40342337,-0.40965155,0.0014076456
