id,attr_time,attr_x,attr_y,attr_z
1,1436182170007,-0.21791954,0.30115655,0.0070116725
2,1436182170029,-0.20325878,0.3298672,0.0064008073
3,1436182170048,-0.18523826,0.33872476,-1.3277866e-05
4,1436182170069,-0.18523826,0.33169982,0.0076225377
5,1436182170087,-0.1837111,0.29749137,0.017701814
6,1436182170111,-0.19226322,0.27611107,0.011287729
7,1436182170129,-0.20478594,0.312763,0.009760566
8,1436182170149,-0.2099783,0.35002577,0.008844268
9,1436182170169,-0.20295335,0.35094208,0.010982296
10,1436182170189,-0.18310022,0.33383784,0.019534409
11,1436182170209,-0.18737629,0.28741208,0.015258353
12,1436182170229,-0.20295335,0.29352075,0.010371432
13,1436182170246,-0.22433363,0.33169982,0.0073171053
14,1436182170267,-0.22066844,0.3567453,0.005789942
15,1436182170289,-0.19989902,0.3454443,0.006095375
16,1436182170308,-0.19104147,0.30573803,0.015258353
17,1436182170328,-0.20967287,0.2687807,0.012814892
18,1436182170347,-0.22952598,0.2846632,0.008538836
19,1436182170369,-0.23074771,0.33047807,0.008538836
20,1436182170393,-0.20417508,0.34727687,0.010065999
21,1436182170409,-0.17485355,0.31612274,0.015258353
22,1436182170429,-0.18340567,0.2742785,0.016174652
23,1436182170448,-0.21211633,0.25931227,0.016785517
24,1436182170468,-0.21791954,0.31245756,0.010982296
25,1436182170488,-0.19806643,0.3390302,0.007927971
26,1436182170506,-0.19470666,0.32406402,0.018618112
27,1436182170577,-0.2063131,0.28435776,0.016480085
28,1436182170578,-0.21425435,0.2755002,0.018618112
29,1436182170589,-0.22005758,0.28832838,0.017701814
30,1436182170590,-0.21822499,0.2950479,0.008844268
31,1436182170606,-0.20020446,0.3249803,-0.0015404411
32,1436182170630,-0.19134691,0.32620203,0.01373119
33,1436182170646,-0.19470666,0.28863382,0.018923545
34,1436182170666,-0.20661855,0.28863382,0.015869219
35,1436182170688,-0.21303263,0.31123585,0.008844268
36,1436182170706,-0.20570225,0.335365,0.0070116725
37,1436182170729,-0.1968447,0.32803464,0.014342056
38,1436182170748,-0.21058917,0.29932395,0.011898594
39,1436182170767,-0.21914127,0.2950479,0.013120325
40,1436182170787,-0.2145598,0.31673363,0.010371432
41,1436182170807,-0.19989902,0.32162052,0.0054845093
42,1436182170836,-0.18554369,0.33047807,0.010676865
43,1436182170867,-0.19104147,0.31612274,0.011593162
44,1436182170868,-0.21058917,0.30879235,0.020450708
45,1436182170886,-0.21669781,0.31306842,0.020145275
46,1436182170907,-0.20264792,0.31306842,0.013120325
47,1436182170926,-0.18523826,0.31398472,0.01373119
48,1436182170953,-0.18768172,0.2904664,0.0146474885
49,1436182170966,-0.20936744,0.2932153,0.015258353
50,1436182170987,-0.22219561,0.30390546,0.013425757
51,1436182171006,-0.21608695,0.3286455,0.007927971
52,1436182171027,-0.17699158,0.3213151,0.01250946
53,1436182171046,-0.16752318,0.26725352,0.01709095
54,1436182171087,-0.19562297,0.2669481,0.019839842
55,1436182171088,-0.21578152,0.30726522,0.015258353
56,1436182171107,-0.20967287,0.3475823,0.01250946
57,1436182171127,-0.18951431,0.34727687,0.013425757
58,1436182171147,-0.19134691,0.30451632,0.012814892
59,1436182171167,-0.19348493,0.2736676,0.01373119
60,1436182171186,-0.20753483,0.29168814,0.012204027
61,1436182171206,-0.2099783,0.3191771,0.009455133
62,1436182171230,-0.20906201,0.34300083,0.0067062397
63,1436182171246,-0.1959284,0.3475823,0.009455133
64,1436182171266,-0.18340567,0.3109304,0.016480085
65,1436182171286,-0.18676542,0.25137103,0.021977872
66,1436182171306,-0.21120003,0.2587014,0.010065999
67,1436182171325,-0.21975215,0.34208453,0.011593162
68,1436182171346,-0.20448051,0.36285394,0.013425757
69,1436182171366,-0.19104147,0.30695978,0.01495292
70,1436182171393,-0.18554369,0.2745839,0.011898594
71,1436182171405,-0.20020446,0.27214044,0.019534409
72,1436182171425,-0.21120003,0.28802294,0.016174652
73,1436182171445,-0.21211633,0.3359759,0.01250946
74,1436182171465,-0.20295335,0.35430184,0.00029215496
75,1436182171485,-0.20386964,0.35369098,0.008844268
76,1436182171505,-0.20234248,0.29382616,0.023199601
77,1436182171525,-0.20784026,0.2397646,0.018007247
78,1436182171545,-0.21791954,0.28435776,0.010065999
79,1436182171565,-0.22250104,0.34300083,0.013120325
80,1436182171585,-0.20784026,0.3277292,0.01373119
81,1436182171605,-0.20203705,0.3017674,0.016174652
82,1436182171626,-0.20814571,0.26969698,0.02655936
83,1436182171648,-0.21303263,0.2828306,0.025337629
84,1436182171667,-0.19226322,0.31703904,0.01831268
85,1436182171689,-0.17485355,0.32192597,0.01495292
86,1436182171711,-0.16630143,0.3213151,0.01495292
87,1436182171730,-0.17027205,0.3017674,0.020145275
88,1436182171749,-0.1931795,0.2755002,0.022283304
89,1436182171768,-0.2258608,0.2913827,0.018007247
90,1436182171787,-0.2417433,0.35460725,0.011287729
91,1436182171808,-0.22799882,0.3738495,0.008844268
92,1436182171828,-0.20661855,0.3454443,0.0015138853
93,1436182171850,-0.19440123,0.29840767,0.0067062397
94,1436182171879,-0.22127931,0.2764165,0.012814892
95,1436182171897,-0.23380205,0.3026837,0.010065999
96,1436182171907,-0.21242176,0.34788775,0.003346481
97,1436182171927,-0.17302096,0.35705072,0.010982296
98,1436182171948,-0.1696612,0.27916542,0.016174652
99,1436182171966,-0.20050989,0.25137103,0.01373119
100,1436182171990,-0.23868896,0.30970865,0.0146474885
101,1436182172007,-0.24296503,0.36071593,0.010065999
102,1436182172027,-0.197761,0.3906483,-1.3277866e-05
103,1436182172048,-0.1669123,0.31612274,0.006095375
104,1436182172067,-0.18707085,0.24740042,0.014036623
105,1436182172087,-0.22799882,0.2751948,0.013425757
106,1436182172107,-0.25182256,0.35979962,0.015563786
107,1436182172127,-0.20753483,0.39003745,0.0073171053
108,1436182172149,-0.16049822,0.31551188,0.005179077
109,1436182172169,-0.1809622,0.24098633,0.010065999
110,1436182172189,-0.22891513,0.25411993,0.013425757
111,1436182172211,-0.27045396,0.34177908,0.01495292
112,1436182172230,-0.24540849,0.37904188,0.010982296
113,1436182172252,-0.18707085,0.36163223,0.005179077
114,1436182172267,-0.15713847,0.2715296,0.009455133
115,1436182172291,-0.1986773,0.23335052,0.010982296
116,1436182172310,-0.23441291,0.30726522,0.011593162
117,1436182172332,-0.2286097,0.3530801,0.015563786
118,1436182172349,-0.19531754,0.34177908,0.0054845093
119,1436182172371,-0.18645999,0.30512717,0.0027356157
120,1436182172391,-0.20448051,0.28680122,0.012204027
121,1436182172411,-0.21822499,0.2733622,0.015258353
122,1436182172432,-0.220363,0.28893924,0.011898594
123,1436182172449,-0.21394892,0.33292156,0.011593162
124,1436182172471,-0.20478594,0.35277468,0.0054845093
125,1436182172490,-0.18218394,0.32956177,0.0146474885
126,1436182172509,-0.1782133,0.2483167,0.01709095
127,1436182172598,-0.20173162,0.23273964,0.018923545
128,1436182172599,-0.22372277,0.27122417,0.014342056
129,1436182172600,-0.22738796,0.35552356,0.013425757
130,1436182172601,-0.18554369,0.40683624,0.009455133
131,1436182172608,-0.143394,0.35888332,0.01831268
132,1436182172628,-0.13209298,0.2736676,0.031140849
133,1436182172651,-0.20478594,0.2229658,0.025337629
134,1436182172668,-0.26739964,0.3362813,0.009760566
135,1436182172688,-0.24846281,0.45753807,0.0005975873
136,1436182172709,-0.1968447,0.38576138,0.0012084527
137,1436182172731,-0.15805475,0.2577851,-0.005205632
138,1436182172750,-0.20936744,0.17104226,-0.005205632
139,1436182172769,-0.26403987,0.28893924,0.009455133
140,1436182172789,-0.24021614,0.39645153,0.02075614
141,1436182172811,-0.19837186,0.3793473,0.010371432
142,1436182172831,-0.1705775,0.34025192,0.0146474885
143,1436182172849,-0.17576984,0.26297748,0.0146474885
144,1436182172876,-0.19623384,0.2574797,0.015258353
145,1436182172888,-0.1986773,0.31673363,0.009760566
146,1436182172908,-0.19837186,0.34727687,0.008233403
147,1436182172928,-0.20203705,0.3567453,0.004873644
148,1436182172948,-0.18890345,0.34788775,0.011287729
149,1436182172969,-0.18645999,0.29749137,0.02075614
150,1436182172990,-0.19715013,0.2855795,0.029002821
151,1436182173009,-0.20234248,0.28863382,0.01495292
152,1436182173031,-0.19562297,0.3436117,0.0045682117
153,1436182173050,-0.18157306,0.36102134,0.0018193179
154,1436182173070,-0.1791296,0.32192597,0.011287729
155,1436182173092,-0.20753483,0.2742785,0.010982296
156,1436182173112,-0.22738796,0.30970865,0.0018193179
157,1436182173133,-0.21242176,0.36560285,-0.0012350082
158,1436182173153,-0.17638071,0.35369098,0.0067062397
159,1436182173170,-0.16324711,0.29840767,0.015563786
160,1436182173190,-0.19959359,0.26755896,0.021977872
161,1436182173211,-0.2276934,0.3530801,0.022283304
162,1436182173231,-0.2154761,0.40011674,0.016785517
163,1436182173250,-0.16935576,0.35430184,0.014036623
164,1436182173317,-0.14950264,0.25411993,0.009455133
165,1436182173318,-0.20203705,0.24709497,0.011898594
166,1436182173319,-0.24815738,0.30451632,0.015258353
167,1436182173342,-0.25426602,0.3484986,0.02075614
168,1436182173348,-0.20142618,0.3539964,0.021061573
169,1436182173369,-0.1827948,0.27183503,0.019228976
170,1436182173389,-0.20509139,0.23640484,0.01250946
171,1436182173409,-0.21853042,0.27794367,0.015258353
172,1436182173430,-0.2258608,0.31551188,0.0146474885
173,1436182173449,-0.220363,0.3203988,0.018007247
174,1436182173469,-0.2072294,0.2996294,0.009760566
175,1436182173492,-0.1818785,0.28741208,0.015258353
176,1436182173510,-0.17424268,0.25259277,0.028086523
177,1436182173529,-0.20112075,0.25534165,0.032973446
178,1436182173550,-0.23013686,0.30024025,0.021061573
179,1436182173570,-0.22647166,0.38637227,0.018923545
180,1436182173589,-0.17454812,0.3512475,0.0146474885
181,1436182173612,-0.15897104,0.24159719,0.005789942
182,1436182173632,-0.19837186,0.19639316,0.017701814
183,1436182173649,-0.23991069,0.24404065,0.011287729
184,1436182173675,-0.22555536,0.36560285,0.017701814
185,1436182173689,-0.18493283,0.3362813,0.01831268
186,1436182173709,-0.17088293,0.28130344,0.017701814
187,1436182173731,-0.19745556,0.26358834,0.025643062
188,1436182173750,-0.22952598,0.27977628,0.029002821
189,1436182173773,-0.21914127,0.30543262,0.018923545
190,1436182173791,-0.19012518,0.32162052,0.018923545
191,1436182173811,-0.17454812,0.30848694,0.0091497
192,1436182173833,-0.19440123,0.26145032,0.016785517
193,1436182173851,-0.23105314,0.24617869,0.026253927
194,1436182173876,-0.23624551,0.30573803,0.023505034
195,1436182173891,-0.21303263,0.36682457,0.014342056
196,1436182173911,-0.17760244,0.34422255,0.0064008073
197,1436182173933,-0.17118835,0.2950479,0.0067062397
198,1436182173952,-0.1669123,0.2819143,0.0045682117
199,1436182173971,-0.13209298,0.24007003,0.009455133
200,1436182173999,-0.2615964,0.07483098,0.06443301
201,1436182174071,-0.36574894,0.19730946,0.018923545
202,1436182174072,-0.31901774,0.5696318,-0.0049001994
203,1436182174073,-0.18737629,0.54550266,0.025032198
204,1436182174074,-0.20386964,0.13286318,0.07756661
205,1436182174090,-0.2108946,0.045204014,0.030224552
206,1436182174114,-0.18248937,0.22143865,-0.023837022
207,1436182174129,-0.20814571,0.4065308,-0.0064273626
208,1436182174149,-0.111323565,0.47036624,0.01373119
209,1436182174171,-0.09208131,0.31887165,0.021672439
210,1436182174190,-0.14705917,0.17531832,0.04641248
211,1436182174211,-0.32268295,0.043676853,0.07726118
212,1436182174231,-0.34772843,0.28741208,0.024726765
213,1436182174250,-0.22066844,0.42363504,-0.030861974
214,1436182174272,-0.13209298,0.27855453,-0.061405238
215,1436182174293,-0.20570225,0.10659598,-0.01650664
216,1436182174313,-0.28053322,0.038789928,0.01495292
217,1436182174331,-0.295194,0.12828168,-0.011619717
218,1436182174353,-0.26831594,0.4456262,-0.046133604
219,1436182174373,-0.15897104,0.6246097,-0.029945675
220,1436182174391,-0.103076875,0.34605515,-0.009787122
221,1436182174412,-0.15011351,0.10842857,-0.007038228
222,1436182174434,-0.22005758,0.24984387,-0.03147284
223,1436182174452,-0.30985478,0.4541783,-0.050715093
224,1436182174476,-0.28725275,0.57207525,-0.054380286
225,1436182174491,-0.18218394,0.4877759,-0.06629215
226,1436182174512,-0.1782133,0.31306842,-0.09775172
227,1436182174533,-0.21853042,0.5317582,-0.10966359
228,1436182174583,-0.20814571,0.8118399,-0.10752556
229,1436182174584,-0.16049822,0.8738427,-0.089810476
230,1436182174592,-0.14675376,0.7629707,-0.044301007
231,1436182174610,-0.13331471,0.75533485,-0.054380286
232,1436182174630,-0.10093886,0.75319684,-0.08125836
233,1436182174654,-0.038630605,0.8536842,-0.08797787
234,1436182174672,0.06185673,0.9080512,-0.10080604
235,1436182174693,0.086902216,0.64660084,-0.14631552
236,1436182174712,0.122026965,0.7333437,-0.21015093
237,1436182174742,0.14371268,0.7202101,-0.21473241
238,1436182174832,0.11561288,0.6533204,-0.20220968
239,1436182174833,0.08568047,0.6563747,-0.20862377
240,1436182174834,0.05055572,0.6258314,-0.19640645
241,1436182174835,0.015125528,0.50732356,-0.17960766
242,1436182174836,-0.059400022,0.38179076,-0.15883824
243,1436182174851,-0.11590505,0.39461893,-0.14203945
244,1436182174873,-0.10216059,0.4233296,-0.14478834
245,1436182174890,-0.11895938,0.5314528,-0.15578392
246,1436182174924,-0.13575818,0.768163,-0.08950503
247,1436182174930,-0.13270384,0.7101308,-0.036970627
248,1436182174950,-0.13850707,0.6356053,0.043358155
249,1436182174974,-0.10704751,0.5778785,0.1261304
250,1436182174990,0.01909618,0.49571714,0.14842698
251,1436182175010,0.24542175,0.41233402,0.1346825
252,1436182175033,0.33949494,0.40958512,0.10230665
253,1436182175054,0.25458473,0.5177083,0.085202426
254,1436182175074,0.03925471,0.85062987,0.042136423
255,1436182175094,-0.07589337,1.2953398,0.06993079
256,1436182175113,-0.23166402,1.4327843,0.12246521
257,1436182175134,-0.13484187,0.55741453,0.018618112
258,1436182175154,-0.03710343,-0.31490105,-0.08675614
259,1436182175174,-0.12690063,-0.47342056,-0.1340982
260,1436182175193,-0.14767005,-0.50885075,-0.07362254
261,1436182175211,0.040171012,-0.46639562,-0.028723944
262,1436182175234,0.31383866,0.04153882,0.03388974
263,1436182175254,0.563988,0.4178318,0.108720735
264,1436182175274,0.57315093,0.22754729,0.19668533
265,1436182175293,0.4427312,-0.4819727,0.36833847
266,1436182175314,0.27046722,-0.61850107,0.29136944
267,1436182175334,0.1821972,0.2669481,0.1288793
268,1436182175353,0.11408572,1.0280862,0.15667365
269,1436182175373,0.24481086,0.9373727,0.3106117
270,1436182175394,0.3901968,0.48533243,0.30389217
271,1436182175416,0.39508373,0.24404065,0.1945473
272,1436182175435,0.3511014,0.36132678,0.097114295
273,1436182175454,0.27565956,0.5155703,0.057102624
274,1436182175474,0.20357747,0.47525316,0.06504387
275,1436182175552,-0.038936034,0.45814893,0.11696741
276,1436182175553,-0.49280894,0.7153232,0.14873241
277,1436182175554,-0.6632403,0.6942483,0.07145795
278,1436182175555,-1.0444202,-0.15180004,-0.101416916
279,1436182175574,-1.3929188,0.15424347,-0.27490264
280,1436182175595,-1.7698227,0.1591304,-0.42487007
281,1436182175611,-2.3024971,0.14660764,-0.5164998
282,1436182175631,-2.3336513,0.44776422,-0.71839076
283,1436182175665,-2.200788,1.5207491,-0.8637767
284,1436182175672,-2.1387854,2.108096,-0.8234596
285,1436182175692,-1.7728771,1.7742581,-0.7131984
286,1436182175712,-1.3773417,1.217149,-0.7083115
287,1436182175737,-1.330916,1.0531317,-0.7797827
288,1436182175754,-1.1772834,1.2986996,-0.80330104
289,1436182175774,-0.909419,1.0989466,-0.8729397
290,1436182175794,-1.2078266,0.6337727,-0.93219364
291,1436182175814,-1.494017,0.36071593,-0.93280447
292,1436182175834,-1.8791676,-0.5830709,-0.84361815
293,1436182175854,-1.7652413,-0.9825768,-0.801163
294,1436182175874,-1.6894939,-1.1136074,-0.7495449
295,1436182175895,-1.7514968,-1.4468343,-0.5882765
296,1436182175914,-1.5789273,-1.2403619,-0.40868214
297,1436182175931,-1.3144227,-0.8298604,-0.1921304
298,1436182175954,-1.0874863,-0.63041294,-0.078814894
299,1436182175974,-0.79732525,-0.61758476,-0.011619717
300,1436182175994,-0.54106724,-0.6075055,-0.020477263
301,1436182176014,-0.46593082,-0.5149594,0.025337629
302,1436182176031,-0.32909703,-0.54519725,0.1420129
303,1436182176054,-0.16752318,-0.448986,0.108415306
304,1436182176074,0.20235573,-0.3778202,0.070541665
305,1436182176095,0.6870773,-0.36285394,0.12307607
306,1436182176116,1.0077815,-0.45631635,0.09375453
307,1436182176133,0.83765554,-0.4697554,0.030224552
308,1436182176154,0.47785598,-0.3717115,-0.08583984
309,1436182176173,0.01604183,-0.14599681,-0.3830258
310,1436182176201,-0.029773057,0.21319196,-0.60782415
311,1436182176258,0.16509296,0.84299403,-0.37080848
312,1436182176259,0.66783506,0.8417723,0.08275896
313,1436182176260,0.8388773,0.7470882,0.26265877
314,1436182176282,0.25641733,1.0247264,-0.07270624
315,1436182176291,0.27535415,3.0488284,-0.2690994
316,1436182176311,1.1311764,3.4697144,0.12551953
317,1436182176345,1.325126,1.6355917,0.24280566
318,1436182176364,1.6391108,1.2040154,0.769677
319,1436182176372,1.701419,1.2913692,1.6221395
320,1436182176392,0.50473404,1.2647965,1.832277
321,1436182176412,-1.3193096,0.6059783,1.3380871
322,1436182176489,-0.7008085,0.23671027,0.2589936
323,1436182176494,0.53894246,0.62980205,0.2806793
324,1436182176495,1.1217079,0.5687156,0.6484202
325,1436182176496,2.1244433,0.31490102,0.039692964
326,1436182176516,2.0746577,-1.8588631,-0.2855928
327,1436182176532,1.0245804,-2.4013114,-0.067208454
328,1436182176552,1.0820017,0.035124734,0.14873241
329,1436182176572,0.6675296,1.4453073,0.5219711
330,1436182176593,0.15379195,0.09162977,0.6627755
331,1436182176611,-0.018777475,-0.17318031,0.50669944
332,1436182176633,0.232899,0.7247916,0.3264942
333,1436182176655,0.35323942,0.4428773,0.30053243
334,1436182176677,0.34468734,0.13255775,0.31305516
335,1436182176694,0.32819396,0.2736676,0.35245597
336,1436182176711,0.30711913,0.4288274,0.4285087
337,1436182176731,0.08476417,0.52931476,0.40376866
338,1436182176751,0.09667607,0.8197811,0.4465292
339,1436182176772,0.4237944,1.3216069,0.5088375
340,1436182176794,0.6049159,1.4825699,0.49387127
341,1436182176815,0.7924515,1.6044376,0.39246765
342,1436182176834,1.1714934,0.3811799,0.2321155
343,1436182176853,1.0569562,-0.43799037,-0.08217466
344,1436182176874,0.47052556,0.11087203,-0.41998315
345,1436182176892,-0.47081774,0.63804877,-0.8029956
346,1436182176912,-1.1128371,0.8151997,-0.909897
347,1436182176934,-1.6894939,0.16615534,-0.6970105
348,1436182177033,-2.8547194,0.17776176,-0.4028789
349,1436182177034,-2.6613805,0.5317582,-0.8020793
350,1436182177035,-1.9845419,1.7180586,-1.1756234
351,1436182177036,-1.6870505,2.257758,-0.96609664
352,1436182177037,-1.5089833,1.5974126,-0.77031434
353,1436182177051,-1.6595615,1.7986927,-0.57605916
354,1436182177078,-1.6574235,1.4538593,-0.53818554
355,1436182177091,-1.3009837,1.1551461,-0.6408109
356,1436182177113,-1.4668336,1.416291,-0.67776823
357,1436182177131,-1.5477732,1.2144,-0.6435598
358,1436182177151,-1.6641431,0.33017266,-0.6215686
359,1436182177170,-1.6925483,0.045814887,-0.64844674
360,1436182177190,-1.8367125,-0.4266894,-0.4896218
361,1436182177210,-1.8965772,-1.4630222,-0.48717833
362,1436182177230,-1.71851,-1.4520266,-0.5696451
363,1436182177250,-1.401471,-1.5015068,-0.40562782
364,1436182177270,-1.1870573,-1.7421877,-0.26940486
365,1436182177290,-0.9124733,-1.9101758,-0.20220968
366,1436182177310,-0.5893256,-1.5741997,-0.27368093
367,1436182177330,-0.15866563,-1.0366383,-0.22603342
368,1436182177351,0.52458715,-0.3903429,-0.15425676
369,1436182177371,1.069479,-0.10629058,0.042441856
370,1436182177391,1.2548765,-0.16432276,0.41109902
371,1436182177416,0.5142024,0.45937067,0.008538836
372,1436182177433,-0.13453645,0.6579019,-0.5378801
373,1436182177452,-0.49983388,0.3213151,-0.8478942
374,1436182177475,-0.35078275,1.2125676,-0.71686363
375,1436182177495,0.210297,2.2061398,-0.1640306
376,1436182177515,-0.41278556,1.0363328,-0.44197428
377,1436182177535,-0.08230746,2.5433373,-0.060794372
378,1436182177555,0.7817614,1.7760906,0.22417426
379,1436182177573,1.2921393,0.38240165,0.65911037
380,1436182177597,1.8080151,0.40133846,1.8732051
381,1436182177639,1.3767442,1.1407908,2.2122352
382,1436182177640,-0.41736704,0.8350528,0.8270983
383,1436182177660,-0.08627808,-0.4251622,0.46302256
384,1436182177673,0.6201876,1.7275269,0.43492278
385,1436182177697,0.61621696,1.6502523,0.7953333
386,1436182177715,0.5319175,0.58123827,0.7846432
