id,attr_time,attr_x,attr_y,attr_z
1,1436183316135,0.02321288,0.109650314,-0.008857546
2,1436183316158,0.021991149,0.079107046,-0.025961773
3,1436183316177,0.02321288,0.102319926,-0.034208454
4,1436183316194,0.03359759,0.087964594,-0.023518313
5,1436183316217,0.034513887,0.03268129,-0.018936822
6,1436183316234,0.02107485,0.03023783,-0.029932396
7,1436183316253,0.0067195175,0.08002335,-0.032070424
8,1436183316273,0.0143553335,0.0571159,-0.017104227
9,1436183316295,0.022602014,0.01985312,-0.0125227375
10,1436183316314,0.0067195175,0.0070249503,-0.02076942
11,1436183316348,-0.01282817,0.010079277,-0.032070424
12,1436183316356,-0.010995574,0.0021380284,-0.017104227
13,1436183316374,0.0,-0.051923547,-0.007330383
14,1436183316394,0.0,-0.07269296,-0.01985312
15,1436183316413,0.00061086525,-0.038789943,-0.021380283
16,1436183316435,0.014049901,-0.027183503,-0.013133603
17,1436183316455,0.0076358155,-0.05131268,-0.009773844
18,1436183316474,0.0012217305,-0.051923547,-0.01038471
19,1436183316493,-0.0067195175,-0.02687807,-0.013744468
20,1436183316513,0.00061086525,-0.011911872,-0.014660766
21,1436183316535,0.01740966,-0.00580322,-0.0125227375
22,1436183316556,0.023518313,-0.009773844,-0.018020526
23,1436183316574,0.009162978,0.014049901,-0.02443461
24,1436183316596,-0.007941248,0.036651913,-0.016493361
25,1436183316617,-0.002443461,0.025045475,-0.017715093
26,1436183316633,0.021685716,0.01985312,-0.021685716
27,1436183316654,0.030543262,0.036957346,-0.027183503
28,1436183316674,0.018325957,0.048563786,-0.023823744
29,1436183316700,0.0018325958,0.050396383,-0.024740042
30,1436183316720,-0.0012217305,0.035430185,-0.025350908
31,1436183316736,0.013744468,0.032070424,-0.028405234
32,1436183316755,0.034513887,0.04428773,-0.034208454
33,1436183316778,0.023823744,0.056199603,-0.032070424
34,1436183316819,-0.0030543262,0.06414085,-0.038179077
35,1436183316820,-0.014049901,0.046731193,-0.03023783
36,1436183316841,-0.003970624,0.024740042,-0.035124753
37,1436183316854,0.018020526,0.029321533,-0.044898596
38,1436183316875,0.008857546,0.059253927,-0.034513887
39,1436183316894,-0.004886922,0.007941248,-0.032070424
40,1436183316917,0.013133603,0.0067195175,-0.040011674
41,1436183316934,0.03176499,0.034513887,-0.03756821
42,1436183316956,0.02565634,0.039095376,-0.03390302
43,1436183316979,0.015577064,0.030543262,-0.030543262
44,1436183316996,0.00030543262,0.016493361,-0.029321533
45,1436183317016,0.007330383,0.014660766,-0.03268129
46,1436183317034,0.023823744,0.024740042,-0.03390302
47,1436183317054,0.022907447,0.021685716,-0.030543262
48,1436183317074,0.014660766,0.0067195175,-0.02443461
49,1436183317095,0.020463986,-0.02321288,-0.021685716
50,1436183317115,0.017715093,-0.0571159,-0.01985312
51,1436183317136,0.012217305,-0.036651913,-0.024129177
52,1436183317169,-0.0033597588,0.00061086525,-0.027488936
53,1436183317256,0.023518313,0.01038471,-0.028099801
54,1436183317257,0.044898596,-0.015271631,-0.028099801
55,1436183317258,0.036957346,-0.03023783,-0.027794369
56,1436183317259,0.0018325958,-0.0021380284,-0.03481932
57,1436183317260,-0.013439035,0.016798794,-0.02321288
58,1436183317279,0.019547688,-0.011911872,-0.02107485
59,1436183317321,0.04520403,-0.03390302,-0.01740966
60,1436183317331,0.03848451,-0.016798794,-0.024129177
61,1436183317336,0.004581489,0.0106901415,-0.028099801
62,1436183317361,-0.00030543262,0.027183503,-0.024129177
63,1436183317402,0.029626964,0.00580322,-0.026267206
64,1436183317403,0.051923547,-0.019547688,-0.02565634
65,1436183317416,0.02443461,-0.029932396,-0.032070424
66,1436183317440,-0.03268129,0.0027488936,-0.04153884
67,1436183317457,-0.017104227,0.01985312,-0.03268129
68,1436183317475,0.028710667,-0.0067195175,-0.022907447
69,1436183317498,0.03359759,-0.029932396,-0.01985312
70,1436183317518,0.01160644,-0.0070249503,-0.02687807
71,1436183317539,0.008552114,0.051618114,-0.027183503
72,1436183317559,0.03604105,0.06169739,-0.028099801
73,1436183317576,0.06078109,0.03390302,-0.021991149
74,1436183317597,0.04642576,0.00580322,-0.018020526
75,1436183317619,0.0067195175,0.0009162979,-0.014660766
76,1436183317639,-0.014049901,-0.004581489,-0.016493361
77,1436183317658,0.003970624,-0.015882496,-0.016187929
78,1436183317676,0.056199603,-0.01863139,-0.017104227
79,1436183317696,0.048563786,0.0076358155,-0.023518313
80,1436183317717,-0.0012217305,0.013744468,-0.018020526
81,1436183317735,0.004581489,-0.018325957,-0.014049901
82,1436183317800,0.051618114,-0.043676864,-0.011911872
83,1436183317801,0.083383106,-0.029932396,-0.025961773
84,1436183317802,0.04337143,0.021685716,-0.032986723
85,1436183317820,0.009162978,0.03176499,-0.018020526
86,1436183317837,0.020158553,-0.013439035,-0.007941248
87,1436183317856,0.04917465,-0.024740042,-0.016798794
88,1436183317875,0.034208454,-0.0143553335,-0.028405234
89,1436183317897,0.0070249503,0.007941248,-0.028099801
90,1436183317917,0.02565634,-0.00030543262,-0.021991149
91,1436183317936,0.053450707,-0.012217305,-0.021380283
92,1436183317956,0.059253927,-0.009773844,-0.027183503
93,1436183317978,0.029626964,0.025961773,-0.035124753
94,1436183318000,0.022602014,0.070554934,-0.025961773
95,1436183318018,0.03940081,0.051923547,-0.02107485
96,1436183318043,0.051618114,0.01863139,-0.028405234
97,1436183318082,0.058643065,0.02443461,-0.025961773
98,1436183318088,0.04428773,0.043066,-0.013439035
99,1436183318136,0.022602014,0.06383542,-0.0143553335
100,1436183318137,0.043066,0.054061573,-0.018325957
101,1436183318138,0.07238753,0.04917465,-0.021991149
102,1436183318157,0.064751714,0.043982297,-0.0290161
103,1436183318178,0.0061086523,0.03573562,-0.027488936
104,1436183318199,-0.015577064,0.0033597588,-0.021380283
105,1436183318217,0.02107485,-0.042760566,-0.017715093
106,1436183318237,0.04520403,-0.051618114,-0.018936822
107,1436183318345,0.034513887,-0.013744468,-0.025350908
108,1436183318346,0.021685716,0.01282817,-0.0033597588
109,1436183318347,0.03573562,-0.027183503,-0.006414085
110,1436183318348,0.038179077,-0.0106901415,-0.025961773
111,1436183318349,0.04184427,0.03176499,-0.03145956
112,1436183318377,0.027183503,0.025961773,-0.015271631
113,1436183318378,0.029321533,-0.013133603,-0.014660766
114,1436183318412,0.03359759,-0.03848451,-0.021991149
115,1436183318415,0.013439035,0.02076942,-0.029321533
116,1436183318436,0.01740966,0.054061573,-0.01863139
117,1436183318462,0.0421497,0.017715093,-0.009468411
118,1436183318477,0.0580322,-0.02565634,-0.021380283
119,1436183318498,0.040317107,0.002443461,-0.030848695
120,1436183318519,0.021380283,0.04337143,-0.021685716
121,1436183318538,0.024740042,0.004581489,-0.015577064
122,1436183318557,0.041233405,-0.044898596,-0.018020526
123,1436183318576,0.0421497,-0.047036625,-0.015882496
124,1436183318602,0.0061086523,-0.03359759,-0.0106901415
125,1436183318621,0.0070249503,-0.04642576,-0.01160644
126,1436183318642,0.03176499,-0.063224554,-0.021380283
127,1436183318658,0.057726767,-0.053450707,-0.025961773
128,1436183318676,0.034513887,-0.0021380284,-0.024740042
129,1436183318696,0.0106901415,-0.00061086525,-0.014966198
130,1436183318716,0.026572637,-0.05681047,-0.012217305
131,1436183318737,0.04153884,-0.027183503,-0.027183503
132,1436183318765,0.021685716,0.015271631,-0.023518313
133,1436183318821,0.013744468,0.016187929,-0.0125227375
134,1436183318822,0.043982297,-0.02321288,-0.019242255
135,1436183318823,0.057726767,-0.02321288,-0.03176499
136,1436183318846,0.044593163,0.022907447,-0.034208454
137,1436183318886,0.009162978,0.05589417,-0.034208454
138,1436183318887,0.00580322,0.052534413,-0.032986723
139,1436183318899,0.029321533,0.0106901415,-0.021685716
140,1436183318918,0.04062254,-0.021380283,-0.007941248
141,1436183318940,0.008246681,0.004276057,-0.019547688
142,1436183318957,0.0030543262,0.059864793,-0.022296581
143,1436183318978,0.059864793,0.07696902,-0.016493361
144,1436183319001,0.09621128,0.04184427,-0.01985312
145,1436183319018,0.05681047,0.029321533,-0.027488936
146,1436183319036,-0.002443461,0.07544186,-0.028099801
147,1436183319056,-0.020158553,0.028099801,-0.019242255
148,1436183319079,0.007941248,-0.054061573,-0.01985312
149,1436183319099,0.029932396,-0.0580322,-0.026572637
150,1436183319119,0.01740966,-0.04428773,-0.021380283
151,1436183319139,0.0106901415,-0.053450707,-0.015882496
152,1436183319159,0.019547688,-0.023823744,-0.01985312
153,1436183319177,0.050396383,0.008552114,-0.022296581
154,1436183319197,0.0571159,0.0290161,-0.023518313
155,1436183319229,0.04795292,0.04917465,-0.023518313
156,1436183319280,0.028099801,0.021991149,-0.006414085
157,1436183319281,0.0125227375,-0.029321533,-0.013744468
158,1436183319282,-0.0070249503,-0.028405234,-0.02107485
159,1436183319296,-0.00061086525,-0.024740042,-0.024740042
160,1436183319317,0.035124753,-0.057421334,-0.015882496
161,1436183319336,0.033292156,-0.04734206,-0.021685716
162,1436183319361,0.013133603,-0.01282817,-0.032070424
163,1436183319378,0.015882496,0.021685716,-0.022907447
164,1436183319398,0.03481932,0.02687807,-0.015577064
165,1436183319423,0.03268129,0.022296581,-0.019242255
166,1436183319439,0.014660766,0.01160644,-0.011911872
167,1436183319460,0.01160644,-0.03756821,-0.01160644
168,1436183319480,0.015271631,-0.03359759,-0.029321533
169,1436183319498,0.029321533,0.032986723,-0.033292156
170,1436183319516,0.04337143,0.04795292,-0.021991149
171,1436183319537,0.03176499,0.014049901,-0.01985312
172,1436183319561,0.018936822,0.016798794,-0.018325957
173,1436183319583,0.020463986,0.035124753,-0.025350908
174,1436183319601,0.026267206,0.029321533,-0.02076942
175,1436183319619,0.017104227,0.020463986,-0.02107485
176,1436183319638,0.009773844,0.004581489,-0.02321288
177,1436183319656,0.01740966,-0.02321288,-0.018020526
178,1436183319677,0.0290161,-0.024740042,-0.01985312
179,1436183319697,0.01985312,-0.0030543262,-0.021380283
180,1436183319720,0.01863139,0.008857546,-0.014049901
181,1436183319783,0.042760566,-0.004276057,-0.009773844
182,1436183319784,0.05100725,-0.015882496,-0.01160644
183,1436183319785,0.029932396,-0.002443461,-0.023518313
184,1436183319811,0.00580322,0.0290161,-0.026267206
185,1436183319818,0.020158553,0.014049901,-0.028405234
186,1436183319851,0.04550946,0.004581489,-0.028710667
187,1436183319858,0.05497787,0.0030543262,-0.024740042
188,1436183319878,0.0143553335,-0.009773844,-0.018936822
189,1436183319927,-0.020463986,-0.0012217305,-0.014660766
190,1436183319928,0.009162978,0.00061086525,-0.0106901415
191,1436183319940,0.06383542,-0.015577064,-0.0076358155
192,1436183319957,0.0693332,0.0015271631,-0.025045475
193,1436183319978,0.0290161,0.044593163,-0.029321533
194,1436183320001,0.02076942,0.062002823,-0.019242255
195,1436183320018,0.03848451,0.016493361,-0.010079277
196,1436183320041,0.04734206,0.013133603,-0.022602014
197,1436183320059,0.027183503,0.03970624,-0.021685716
198,1436183320080,0.0015271631,0.030543262,-0.01038471
199,1436183320100,0.0070249503,-0.02443461,-0.007330383
200,1436183320118,0.02076942,-0.015271631,-0.029626964
201,1436183320138,0.021991149,0.03023783,-0.03940081
202,1436183320157,0.029932396,0.021380283,-0.02107485
203,1436183320188,0.028405234,-0.010995574,-0.01282817
204,1436183320243,0.01985312,-0.03726278,-0.015882496
205,1436183320244,0.014966198,0.0021380284,-0.021685716
206,1436183320253,0.010079277,0.027488936,-0.012217305
207,1436183320280,0.01985312,0.007330383,-0.016798794
208,1436183320281,0.029626964,-0.0076358155,-0.019547688
209,1436183320298,0.025961773,-0.01863139,-0.017104227
210,1436183320326,0.0125227375,-0.006414085,-0.021991149
211,1436183320340,0.005497787,0.023518313,-0.019242255
212,1436183320358,0.024740042,0.005192355,-0.016187929
213,1436183320381,0.05955936,-0.0012217305,-0.014660766
214,1436183320399,0.040011674,0.011301007,-0.015271631
215,1436183320418,0.0033597588,0.016798794,-0.015271631
216,1436183320440,0.01038471,0.016187929,-0.0125227375
217,1436183320458,0.0421497,-0.003970624,-0.013133603
218,1436183320477,0.04734206,-0.015882496,-0.016187929
219,1436183320499,0.005497787,-0.027183503,-0.020463986
220,1436183320519,-0.00580322,-0.033292156,-0.017104227
221,1436183320544,0.022602014,-0.021991149,-0.01282817
222,1436183320559,0.04153884,-0.02687807,-0.023823744
223,1436183320579,0.04184427,-0.01160644,-0.017715093
224,1436183320598,0.015577064,-0.004276057,-0.008246681
225,1436183320620,0.024129177,-0.0027488936,-0.0027488936
226,1436183320639,0.045814894,0.003970624,-0.009162978
227,1436183320661,0.043676864,0.009468411,-0.020463986
228,1436183320680,0.024740042,0.03023783,-0.026267206
229,1436183320741,0.014966198,0.028710667,-0.013439035
230,1436183320742,0.02321288,0.0030543262,-0.01282817
231,1436183320743,0.03573562,0.00061086525,-0.024129177
232,1436183320765,0.019547688,0.006414085,-0.016798794
233,1436183320779,-0.0030543262,0.00030543262,-0.014660766
234,1436183320809,0.009162978,0.011301007,-0.015882496
235,1436183320821,0.03145956,0.027488936,-0.018936822
236,1436183320839,0.049480084,0.01740966,-0.018325957
237,1436183320867,0.037873644,0.018325957,-0.015577064
238,1436183320880,0.015882496,0.021991149,-0.02107485
239,1436183320901,0.004886922,0.027794369,-0.025350908
240,1436183320921,0.02076942,0.02321288,-0.015882496
241,1436183320940,0.025961773,-0.022907447,-0.011911872
242,1436183320960,0.0070249503,-0.048563786,-0.017715093
243,1436183320979,-0.0015271631,-0.021685716,-0.023518313
244,1436183321004,0.013439035,0.013439035,-0.015577064
245,1436183321018,0.02321288,0.010995574,-0.020463986
246,1436183321044,0.041233405,0.01282817,-0.021380283
247,1436183321059,0.03390302,0.0070249503,-0.016798794
248,1436183321079,0.004276057,-0.03756821,-0.01740966
249,1436183321098,-0.0009162979,-0.04520403,-0.01985312
250,1436183321529,0.015577064,-0.02565634,-0.021380283
251,1436183321530,0.05222898,-0.00030543262,-0.024129177
252,1436183321531,0.03940081,0.007330383,-0.014049901
253,1436183321532,0.0,-0.0018325958,-0.008552114
254,1436183321533,-0.018020526,-0.004886922,-0.017715093
255,1436183321534,0.042455133,0.02321288,-0.024129177
256,1436183321535,0.06505715,0.03481932,-0.02687807
257,1436183321536,0.03604105,0.018020526,-0.016493361
258,1436183321537,-0.004581489,0.035430185,-0.009468411
259,1436183321552,-0.020463986,0.008246681,0.014049901
260,1436183321559,0.019242255,0.005497787,0.0018325958
261,1436183321560,0.06047566,0.048563786,-0.010079277
262,1436183321561,0.06169739,0.07391469,-0.014966198
263,1436183321562,0.047036625,0.06383542,-0.01985312
264,1436183321563,0.02076942,0.04184427,-0.020158553
265,1436183321564,0.029321533,0.03970624,-0.028710667
266,1436183321565,0.02687807,0.040317107,-0.028405234
267,1436183321566,0.01038471,0.0076358155,-0.01985312
268,1436183321567,-0.006414085,-0.01282817,-0.01160644
269,1436183321568,-0.014660766,-0.022602014,-0.016493361
270,1436183321569,-0.0076358155,-0.030543262,-0.015882496
271,1436183321570,-0.0070249503,-0.030543262,-0.01985312
272,1436183321571,0.0125227375,-0.03268129,-0.027183503
273,1436183321581,0.036651913,-0.032986723,-0.023823744
274,1436183321602,0.036651913,-0.03604105,-0.007941248
275,1436183321619,-0.002443461,-0.025045475,-0.008857546
276,1436183321651,-0.026267206,-0.0076358155,-0.004581489
277,1436183321658,-0.00061086525,-0.0290161,0.0030543262
278,1436183321679,0.027794369,-0.047036625,0.0070249503
279,1436183321709,0.043982297,-0.016798794,-0.016798794
280,1436183321722,0.034208454,0.06078109,-0.03940081
281,1436183321741,0.034513887,0.079107046,-0.03604105
282,1436183321759,0.004581489,0.073303826,-0.03023783
283,1436183321782,-0.023823744,0.019547688,-0.024740042
284,1436183321798,-0.03023783,-0.010995574,-0.027183503
285,1436183321817,-0.023518313,-0.019547688,-0.01985312
286,1436183321839,-0.010079277,-0.017104227,-0.0036651916
287,1436183321859,-0.008552114,-0.006414085,-0.00061086525
288,1436183321877,0.0018325958,0.043676864,-0.00030543262
289,1436183321897,0.041233405,0.083383106,-0.010995574
290,1436183321921,0.092240654,0.11148291,-0.0143553335
291,1436183321940,0.0983493,0.10048734,0.005497787
292,1436183321960,0.03268129,0.069027774,0.018936822
293,1436183321979,-0.038179077,0.096516706,0.015577064
294,1436183322000,-0.042455133,0.08307768,0.021991149
295,1436183322020,0.006414085,0.054061573,0.02565634
296,1436183322040,0.040927973,0.0009162979,0.011301007
297,1436183322063,0.026572637,-0.015577064,-0.0033597588
298,1436183322080,-0.012217305,0.02565634,0.0009162979
299,1436183322100,-0.029626964,0.05497787,0.005497787
300,1436183322120,-0.009162978,0.034513887,0.0076358155
301,1436183322143,0.026572637,0.008246681,0.01160644
302,1436183322158,0.043676864,-0.006414085,0.011911872
303,1436183322179,0.022907447,0.023823744,0.034208454
304,1436183322199,-0.0036651916,0.07086037,0.038789943
305,1436183322218,-0.008857546,0.08155051,0.048258353
306,1436183322238,0.06383542,0.070249505,0.038789943
307,1436183322259,0.12644911,0.07269296,0.033292156
308,1436183322280,0.1160644,0.057421334,0.028405234
309,1436183322298,0.08399397,0.089186326,0.040011674
310,1436183322321,0.037873644,0.10598512,0.043676864
311,1436183322338,0.048258353,0.10598512,0.03970624
312,1436183322361,0.12095132,0.059253927,0.040317107
313,1436183322381,0.15699236,0.0021380284,0.04550946
314,1436183322403,0.10598512,0.009162978,0.04062254
315,1436183322424,-0.015577064,0.04795292,0.04153884
316,1436183322441,-0.02565634,0.07360926,0.063224554
317,1436183322458,0.019242255,0.011301007,0.086437434
318,1436183322479,0.029321533,-0.10445796,0.080634214
319,1436183322499,0.013744468,-0.14630222,0.06841691
320,1436183322521,-0.018936822,-0.10842858,0.06414085
321,1436183322558,-0.010079277,-0.09468412,0.05681047
322,1436183322559,0.023518313,-0.129198,0.042455133
323,1436183322579,0.0720821,-0.15668693,0.032986723
324,1436183322599,0.12675454,-0.07238753,0.0125227375
325,1436183322620,0.19517145,0.003970624,-0.03268129
326,1436183322643,0.18692477,0.20097467,-0.08674286
327,1436183322661,0.10903945,0.48899764,-0.13225232
328,1436183322681,-0.38423425,0.71929383,-0.18600847
329,1436183322700,-0.6600399,0.75991637,-0.10781772
330,1436183322720,-0.5833763,0.7443393,-0.22510384
331,1436183322741,-0.589485,0.8741482,-0.34972036
332,1436183322761,-0.5299256,0.6630942,-0.52687126
333,1436183322783,-0.5525276,0.27763826,-0.59742624
334,1436183322801,-0.5714644,0.084910266,-0.61850107
335,1436183322824,-0.59742624,-0.43799037,-0.63713247
336,1436183322843,-0.62888575,-0.95905846,-0.6432411
337,1436183322863,-0.61086524,-0.83199847,-0.5534439
338,1436183322882,-0.550695,-1.0073168,-0.5742133
339,1436183322902,-0.51893,-1.1395692,-0.537256
340,1436183322921,-0.55955255,-0.5693264,-0.4868596
341,1436183322941,-0.5589417,0.015271631,-0.38515055
342,1436183322964,-0.4822781,0.049480084,-0.410196
343,1436183322983,-0.54519725,-0.15851954,-0.31887165
344,1436183323031,-0.55771995,-0.34025195,-0.30970868
345,1436183323032,-0.6224717,-0.40683624,-0.32895094
346,1436183323048,-0.61361414,-0.24923302,-0.3323107
347,1436183323063,-0.5907067,-0.5342017,-0.3222314
348,1436183323085,-0.5338962,-0.82527894,-0.3109304
349,1436183323104,-0.5140431,-0.799928,-0.30543262
350,1436183323120,-0.52656585,-0.8900307,-0.25778514
351,1436183323144,-0.41080686,-0.89949906,-0.23335053
352,1436183323162,-0.30940324,-0.66645396,-0.22327125
353,1436183323187,-0.20830505,-0.571159,-0.19181168
354,1436183323202,-0.16646078,-0.528093,-0.19792034
355,1436183323221,-0.09560041,-0.57451874,-0.22968534
356,1436183323240,0.032070424,-0.52503866,-0.22479841
357,1436183323264,0.15821409,-0.75777835,-0.21013765
358,1436183323284,0.32436943,-0.6994407,-0.1469131
359,1436183323304,0.4859433,-0.2574797,-0.05009095
360,1436183323324,0.7318166,0.008246681,-0.2049453
361,1436183323343,1.0748174,-0.09407325,-0.25259277
362,1436183323364,1.5567901,0.21197024,-0.12858713
363,1436183323384,1.7461584,0.8170323,0.3155119
364,1436183323404,0.86834496,2.339003,0.15851954
365,1436183323424,0.04734206,2.9013045,-0.074830994
366,1436183323444,0.91538155,2.733622,0.0027488936
367,1436183323463,1.3106114,2.1184807,-0.009773844
368,1436183323484,1.1297953,0.4447099,0.21930063
