id,attr_time,attr_x,attr_y,attr_z
1,1437067245627,-0.010305032,-0.077965,0.073967814
2,1437067245646,-0.017940849,-0.0761324,0.06785916
3,1437067245665,-0.020995175,-0.066969424,0.07060806
4,1437067245685,-0.015191957,-0.0761324,0.076716706
5,1437067245705,-0.004807245,-0.08071389,0.07793844
6,1437067245727,-0.0054181106,-0.077048704,0.07763301
7,1437067245746,0.008937221,-0.07582697,0.0785493
8,1437067245767,0.015656736,-0.07246721,0.08618512
9,1437067245785,0.013213281,-0.06788572,0.087406844
10,1437067245806,0.0037448667,-0.046810873,0.08985031
11,1437067245826,-0.008167006,-0.025736019,0.09382093
12,1437067245845,0.0019122697,-0.019321933,0.09107204
13,1437067245867,0.012907844,-0.020543665,0.092904635
14,1437067245884,0.014129575,-0.029095776,0.0916829
15,1437067245905,0.018405635,-0.05597385,0.09626439
16,1437067245925,0.014435012,-0.07918673,0.10145675
17,1437067245947,0.008020923,-0.10087244,0.10237305
18,1437067245968,-0.00022575632,-0.11675494,0.10054045
19,1437067245985,-0.004501812,-0.1182821,0.094126366
20,1437067246006,-0.011221331,-0.1060648,0.08465795
21,1437067246025,-0.019773446,-0.08560081,0.07580041
22,1437067246045,-0.027409261,-0.068191156,0.07060806
23,1437067246064,-0.02618753,-0.06177707,0.06785916
24,1437067246083,-0.020384312,-0.07765956,0.07305151
25,1437067246105,-0.021911474,-0.11003542,0.080992766
26,1437067246132,-0.025271233,-0.12439076,0.08587968
27,1437067246144,-0.0249658,-0.13049941,0.09015574
28,1437067246165,-0.019468013,-0.12164186,0.09046117
29,1437067246184,-0.0020583533,-0.110340856,0.085574254
30,1437067246204,0.0013014041,-0.085906245,0.08068733
31,1437067246226,0.009548087,-0.07765956,0.07916017
32,1437067246245,0.007104624,-0.07307808,0.075494975
33,1437067246266,0.0022177026,-0.08193562,0.079771034
34,1437067246287,0.00069054216,-0.09445836,0.080992766
35,1437067246313,-0.009999599,-0.115227774,0.07793844
36,1437067246340,-0.01335936,-0.1509634,0.07793844
37,1437067246346,-0.009999599,-0.15432316,0.07641128
38,1437067246364,-0.01702455,-0.13294287,0.075189546
39,1437067246384,-0.017329983,-0.09934528,0.06327767
40,1437067246406,-0.018246282,-0.07582697,0.05503099
41,1437067246425,-0.016719118,-0.063915096,0.054114692
42,1437067246445,-0.010610465,-0.07765956,0.061139643
43,1437067246466,-0.009999599,-0.103621334,0.0626668
44,1437067246485,-0.009083305,-0.09354206,0.06175051
45,1437067246505,-0.011526763,-0.06910745,0.05961248
46,1437067246525,-0.010915898,-0.05719558,0.062361374
47,1437067246545,-0.016719118,-0.075521536,0.065110266
48,1437067246566,-0.029547289,-0.06024991,0.06297224
49,1437067246586,-0.03076902,-0.07094005,0.06419397
50,1437067246606,-0.033517912,-0.089876875,0.061139643
51,1437067246625,-0.04237546,-0.08957144,0.05869618
52,1437067246648,-0.051233005,-0.08101933,0.05869618
53,1437067246669,-0.03657224,-0.08468452,0.0644994
54,1437067246685,-0.020689743,-0.077965,0.069691755
55,1437067246706,-0.005112678,-0.10637023,0.073967814
56,1437067246726,-0.014581092,-0.111868024,0.07121892
57,1437067246745,-0.017329983,-0.074299805,0.07030262
58,1437067246766,-0.013970226,-0.055362985,0.07641128
59,1437067246786,-0.009083305,-0.06422053,0.07641128
60,1437067246808,-0.0017529204,-0.06635856,0.08068733
61,1437067246872,-0.009083305,-0.08743341,0.08435252
62,1437067246873,-0.021606041,-0.08896057,0.08526882
63,1437067246874,-0.020078879,-0.09415293,0.088323146
64,1437067246885,-0.018551715,-0.11217345,0.08893401
65,1437067246947,-0.01580282,-0.12591793,0.08649055
66,1437067246948,-0.012748495,-0.13355373,0.09046117
67,1437067246949,-0.022216907,-0.12561248,0.096875265
68,1437067246972,-0.025576664,-0.10423221,0.09962416
69,1437067246986,-0.023744069,-0.08773884,0.10328934
70,1437067247008,-0.014275659,-0.09415293,0.10512194
71,1437067247026,-0.0032800846,-0.09629096,0.10390021
72,1437067247048,-0.0011420548,-0.09048773,0.105732806
73,1437067247067,-0.00022575632,-0.089876875,0.10359478
74,1437067247088,0.000995975,-0.07643783,0.10298391
75,1437067247106,-0.0075561404,-0.061166205,0.099929586
76,1437067247126,-0.0390157,-0.048338033,0.10359478
77,1437067247149,-0.043291755,-0.063915096,0.1197827
78,1437067247168,-0.044513486,-0.14332758,0.12466963
79,1437067247186,-0.045124352,-0.2044141,0.123142466
80,1437067247206,-0.03779397,-0.2221292,0.12466963
81,1437067247228,-0.022216907,-0.24809097,0.13322175
82,1437067247251,-0.016413685,-0.2239618,0.14360645
83,1437067247269,-0.027103828,-0.16623503,0.14299558
84,1437067247293,-0.033517912,-0.12591793,0.1478825
85,1437067247306,-0.02863099,-0.12255816,0.15643463
86,1437067247331,-0.038710266,-0.12775052,0.17170626
87,1437067247346,-0.061006848,-0.12561248,0.16529217
88,1437067247366,-0.051233005,-0.15432316,0.14879881
89,1437067247386,-0.039626565,-0.1790632,0.13291632
90,1437067247408,-0.0032800846,-0.1876153,0.1084817
91,1437067247426,0.015656736,-0.2080793,0.08893401
92,1437067247453,0.008937221,-0.12316903,0.052282095
93,1437067247475,0.02084909,0.037183106,0.031512678
94,1437067247489,0.028179478,0.083608866,0.03181811
95,1437067247517,0.037647884,0.08177626,0.040370226
96,1437067247589,0.02665231,0.037488535,0.047700606
97,1437067247590,-0.0038909502,-0.037647896,0.06755373
98,1437067247591,-0.023744069,-0.114616916,0.07274608
99,1437067247592,-0.042070027,-0.18150666,0.080992766
100,1437067247606,-0.05886882,-0.20869017,0.088323146
101,1437067247626,-0.0539819,-0.21602055,0.0916829
102,1437067247646,-0.033517912,-0.20319238,0.08190906
103,1437067247674,-0.002363786,-0.16562416,0.058085315
104,1437067247686,0.031539235,-0.08896057,0.037315898
105,1437067247707,0.052308653,-0.0049666017,0.019600805
106,1437067247727,0.05291952,0.10498914,0.012575857
107,1437067247747,0.043145675,0.15874527,0.0046346076
108,1437067247769,0.026957747,0.108959764,0.0052454732
109,1437067247788,0.010158952,0.011832193,0.029069219
110,1437067247806,-0.058257956,-0.06360967,0.06205594
111,1437067247827,-0.0988805,-0.17387085,0.092904635
112,1437067247849,-0.078111075,-0.31803504,0.11428492
113,1437067247869,-0.022216907,-0.37179118,0.10420564
114,1437067247915,0.014129575,-0.2923787,0.087101415
115,1437067247916,0.03642616,-0.12133643,0.058085315
116,1437067247928,0.022070821,0.018857136,0.041591957
117,1437067247948,-0.0054181106,0.13400523,0.043729983
118,1437067247967,-0.028020127,0.12026076,0.05289296
119,1437067247989,-0.023438636,0.025271222,0.07732757
120,1437067248007,-0.013970226,-0.093236625,0.09656983
121,1437067248029,-0.004196383,-0.13935696,0.107259974
122,1437067248050,0.008020923,-0.115227774,0.095653534
123,1437067248069,0.008631788,-0.07002375,0.080992766
124,1437067248098,0.006493762,-0.022376262,0.06999719
125,1437067248113,-0.00053118914,0.0035855174,0.06877546
126,1437067248129,-0.0054181106,-7.967651e-05,0.07274608
127,1437067248149,-0.004196383,-0.029401213,0.08343622
128,1437067248169,-0.004196383,-0.08101933,0.09656983
129,1437067248190,-0.0038909502,-0.13233201,0.094126366
130,1437067248209,-0.0057235435,-0.15035254,0.09107204
131,1437067248236,-0.004807245,-0.12408532,0.07824387
132,1437067248299,0.0034394339,-0.05444669,0.07305151
133,1437067248302,0.006799195,0.002058342,0.07213522
134,1437067248303,0.011380684,0.047567815,0.06847002
135,1437067248309,0.015962172,0.051843867,0.07335695
136,1437067248329,0.016878467,0.026187524,0.08496339
137,1437067248347,0.008631788,-0.02848491,0.08496339
138,1437067248366,0.004661165,-0.062387936,0.092904635
139,1437067248387,-0.0014474876,-0.09079317,0.087406844
140,1437067248406,-0.0060289763,-0.077048704,0.08160363
141,1437067248427,-0.015191957,-0.06330423,0.08496339
142,1437067248457,-0.016108252,-0.045283705,0.08068733
143,1437067248466,-0.016719118,-0.044061974,0.08465795
144,1437067248489,-0.013970226,-0.065442264,0.09046117
145,1437067248506,-0.011526763,-0.087127976,0.0935155
146,1437067248528,-0.017329983,-0.09568009,0.08923945
147,1437067248546,-0.01580282,-0.08834971,0.07885474
148,1437067248569,-0.013970226,-0.07582697,0.07213522
149,1437067248595,-0.0075561404,-0.058111876,0.06205594
150,1437067248611,-0.008777872,-0.04467284,0.05869618
151,1437067248627,-0.016413685,-0.024208859,0.058390748
152,1437067248647,-0.02618753,-0.01687847,0.063888535
153,1437067248667,-0.027714694,-0.049559765,0.07335695
154,1437067248690,-0.027714694,-0.08743341,0.08160363
155,1437067248706,-0.025271233,-0.12713966,0.08771228
156,1437067248726,-0.017635416,-0.1482145,0.09321007
157,1437067248750,-0.018551715,-0.16715133,0.08893401
158,1437067248769,-0.023744069,-0.14485474,0.08160363
159,1437067248788,-0.021606041,-0.10575937,0.072440654
160,1437067248807,-0.01916258,-0.068496585,0.06908089
161,1437067248826,-0.023133203,-0.05719558,0.06999719
162,1437067248846,-0.021606041,-0.072772644,0.08374166
163,1437067248869,-0.0148865245,-0.084379084,0.08923945
164,1437067248892,-0.009999599,-0.10667566,0.096875265
165,1437067248912,-0.0072507076,-0.1201147,0.09626439
166,1437067248928,-0.0035855174,-0.119198404,0.091377474
167,1437067248946,-0.0054181106,-0.11706038,0.08923945
168,1437067248977,-0.012748495,-0.101788744,0.077022135
169,1437067248987,-0.017329983,-0.07307808,0.06877546
170,1437067249011,-0.018246282,-0.056890145,0.06877546
171,1437067249027,-0.017635416,-0.0629988,0.07121892
172,1437067249047,-0.018246282,-0.093236625,0.07732757
173,1437067249066,-0.014581092,-0.103010476,0.08160363
174,1437067249089,-0.009388737,-0.1069811,0.084047094
175,1437067249107,-0.009999599,-0.11095172,0.087101415
176,1437067249130,-0.010915898,-0.11278432,0.087406844
177,1437067249151,-0.018246282,-0.11003542,0.087406844
178,1437067249169,-0.02863099,-0.10209417,0.08190906
179,1437067249187,-0.036266807,-0.09048773,0.07824387
180,1437067249211,-0.03565594,-0.08957144,0.07641128
181,1437067249232,-0.031685315,-0.08529538,0.073967814
182,1437067249250,-0.021911474,-0.07491067,0.06755373
183,1437067249269,-0.015191957,-0.07888129,0.06419397
184,1437067249291,-0.0148865245,-0.07063462,0.06327767
185,1437067249310,-0.0060289763,-0.058417313,0.05716902
186,1437067249331,0.004966598,-0.054141253,0.05503099
187,1437067249348,0.007104624,-0.048032604,0.057474453
188,1437067249370,0.012602415,-0.046810873,0.05594729
189,1437067249391,0.011991549,-0.05047606,0.060223345
190,1437067249411,0.006799195,-0.05169779,0.06480484
191,1437067249430,0.011380684,-0.055668414,0.06785916
192,1437067249450,0.008937221,-0.060860768,0.076716706
193,1437067249471,0.012907844,-0.08224106,0.086795986
194,1437067249491,0.0061883293,-0.101788744,0.092904635
195,1437067249510,0.011075247,-0.11797667,0.09748612
196,1437067249531,0.007410057,-0.12347446,0.0944318
197,1437067249551,0.0013014041,-0.12316903,0.09198834
198,1437067249572,0.0025231354,-0.103315905,0.08465795
199,1437067249591,0.007104624,-0.08254649,0.073967814
200,1437067249611,-0.0011420548,-0.06941289,0.07213522
201,1437067249680,-0.0060289763,-0.05750101,0.07274608
202,1437067249681,-0.004807245,-0.05017063,0.07030262
203,1437067249682,-0.009388737,-0.042534813,0.06999719
204,1437067249691,-0.017329983,-0.054141253,0.07580041
205,1437067249708,-0.016413685,-0.078270435,0.08190906
206,1437067249731,-0.016413685,-0.08957144,0.08587968
207,1437067249748,-0.022216907,-0.09629096,0.092904635
208,1437067249769,-0.028325558,-0.104843065,0.09107204
209,1437067249788,-0.020384312,-0.110340856,0.08801772
210,1437067249811,-0.022216907,-0.11675494,0.08985031
211,1437067249829,-0.024354935,-0.11064629,0.08893401
212,1437067249849,-0.021911474,-0.103621334,0.09504266
213,1437067249868,-0.017329983,-0.121947296,0.10145675
214,1437067249891,-0.015191957,-0.14180042,0.11092516
215,1437067249911,-0.013970226,-0.16531873,0.10909256
216,1437067249931,-0.01549739,-0.1631807,0.097180694
217,1437067249948,-0.023133203,-0.17845233,0.08343622
218,1437067249971,-0.04970584,-0.19372396,0.06572113
219,1437067249991,-0.07291872,-0.17845233,0.052282095
220,1437067250011,-0.08941208,-0.13660806,0.04922777
221,1437067250031,-0.072002426,-0.09079317,0.04800604
222,1437067250052,-0.03657224,-0.08682254,0.05594729
223,1437067250068,-0.016108252,-0.11431148,0.06205594
224,1437067250091,-0.038404837,-0.17936863,0.068164594
225,1437067250110,-0.13278352,-0.31650788,0.08496339
226,1437067250128,-0.19784066,-0.33605558,0.09321007
227,1437067250148,-0.14377908,-0.2670278,0.082519926
228,1437067250170,-0.09765877,-0.27832878,0.07488411
229,1437067250190,-0.12239881,-0.20166521,0.06847002
230,1437067250212,-0.11629015,-0.092014894,0.073967814
231,1437067250231,-0.080859974,-0.100261584,0.07213522
232,1437067250249,-0.04970584,-0.1341646,0.07335695
233,1437067250268,-0.020689743,-0.15065797,0.07305151
234,1437067250289,-0.0032800846,-0.11370061,0.07580041
235,1437067250310,0.02512515,-0.04284025,0.07885474
236,1437067250329,0.03642616,-0.06880202,0.08374166
237,1437067250407,-0.03779397,-0.09842898,0.08496339
238,1437067250419,-0.13583784,-0.07949217,0.09748612
239,1437067250420,-0.15019317,-0.18792075,0.0953481
240,1437067250421,-0.15966159,-0.29298955,0.08190906
241,1437067250447,-0.16607568,-0.32567084,0.07641128
242,1437067250450,-0.18348533,-0.3577413,0.08343622
243,1437067250474,-0.21983181,-0.4108866,0.09076661
244,1437067250489,-0.2393795,-0.478998,0.09504266
245,1437067250512,-0.24945877,-0.52298033,0.1066491
246,1437067250528,-0.25495657,-0.5171771,0.11642295
247,1437067250549,-0.2525131,-0.47227854,0.122226164
248,1437067250570,-0.2253296,-0.38278675,0.11520122
249,1437067250589,-0.17982014,-0.32353282,0.10970343
250,1437067250609,-0.11476299,-0.2887135,0.11581208
251,1437067250629,-0.08666319,-0.15982094,0.11459035
252,1437067250649,-0.054898195,-0.062693365,0.12130987
253,1437067250669,-0.03076902,0.024660364,0.123753324
254,1437067250689,-0.0057235435,0.0008366257,0.13566521
255,1437067250709,0.0013014041,-0.091404036,0.14574447
256,1437067250729,-0.0038909502,-0.12347446,0.13627607
257,1437067250748,0.0040502995,-0.11858754,0.110314295
258,1437067250771,0.0013014041,-0.040702216,0.09229377
259,1437067250792,-0.008777872,0.08910665,0.06694286
260,1437067250809,0.006493762,0.34353203,0.06480484
261,1437067250832,0.045894567,0.56558156,0.073967814
262,1437067250852,0.100261584,0.54114693,0.0916829
263,1437067250872,0.12286359,0.29680085,0.11428492
264,1437067250892,0.113089755,0.04695694,0.13810867
265,1437067250912,0.07735413,-0.080103025,0.1515477
266,1437067250932,0.0629988,-0.19464026,0.15490746
267,1437067250952,0.011075247,-0.250229,0.15429659
268,1437067250970,-0.07414045,-0.22243463,0.15032597
269,1437067250992,-0.17126803,-0.101788744,0.12864025
270,1437067251013,-0.25006965,0.0029746443,0.10267848
271,1437067251032,-0.30229864,-0.008937225,0.07060806
272,1437067251050,-0.43455097,0.01763542,0.048922338
273,1437067251069,-0.6645417,0.09368813,0.014103018
274,1437067251090,-0.8392492,0.3227626,-0.055841055
275,1437067251114,-0.8985031,0.49013972,-0.15999357
276,1437067251128,-0.803819,0.49075055,-0.22810505
277,1437067251148,-0.77358115,0.8960597,-0.30843383
278,1437067251168,-0.89514333,0.9849406,-0.36554974
279,1437067251188,-0.89972484,0.9727232,-0.41350266
280,1437067251211,-0.6440777,0.9177454,-0.457485
281,1437067251229,-0.44188133,0.83222425,-0.5433115
282,1437067251250,-0.38781977,0.9458452,-0.47978154
283,1437067251270,-0.2580109,0.715549,-0.37471274
284,1437067251292,-0.13095091,0.2503751,-0.29621655
285,1437067251313,-0.20242216,0.039931998,-0.25864834
286,1437067251334,-0.29954973,-0.24809097,-0.30263063
287,1437067251351,-0.24609901,-0.63660127,-0.3041578
288,1437067251373,-0.073529586,-0.7795437,-0.34416947
289,1437067251393,0.046200003,-0.74991673,-0.31881854
290,1437067251413,0.10270505,-0.73800486,-0.2436821
291,1437067251433,0.10392678,-0.8021457,-0.22627245
292,1437067251453,0.06360966,-1.0767297,-0.225967
293,1437067251470,0.022376258,-0.98876506,-0.1331155
294,1437067251492,0.08468452,-0.91668296,-0.029879276
295,1437067251513,0.15401772,-0.8189445,0.07274608
296,1437067251532,0.21510424,-0.683027,0.1066491
297,1437067251552,0.22121291,-0.4114974,0.12802939
298,1437067251571,0.20960645,-0.23770626,0.1787312
299,1437067251593,0.21235536,-0.13385917,0.21874288
300,1437067251614,0.1921968,-0.21724227,0.23126562
301,1437067251634,0.1350809,-0.347662,0.17598231
302,1437067251653,0.111868024,-0.3775944,0.12833482
303,1437067251673,0.114616916,-0.36568254,0.121920735
304,1437067251691,0.12897225,-0.38431394,0.15735091
305,1437067251712,0.15676661,-0.41638434,0.22179721
306,1437067251732,0.18089579,-0.411192,0.27158272
307,1437067251750,0.17631431,-0.26947126,0.2639469
308,1437067251806,0.18395011,-0.10667566,0.27738595
309,1437067251807,0.26305714,0.1541638,0.38611993
310,1437067251825,0.499462,0.6129236,0.63321495
311,1437067251831,0.8494878,1.2537212,0.90443915
312,1437067251852,0.9783803,1.5851156,0.8348005
313,1437067251873,0.24503665,1.0267848,0.29265755
314,1437067251890,0.39500403,-0.6030037,-0.86584836
315,1437067251915,0.69768775,-0.13844065,-0.547893
316,1437067251932,0.18303382,1.277545,-0.06317143
317,1437067251951,-0.24793161,1.1877477,0.10603824
318,1437067251972,-0.27450424,-0.0034394413,0.74622506
319,1437067251991,-0.5707739,-1.3082477,1.0944182
320,1437067252013,-0.4544041,-2.8354108,1.270042
321,1437067252033,0.40477788,-5.0837,0.5702959
322,1437067252053,0.19189137,-6.1337776,-0.29224592
323,1437067252073,-0.33650708,-2.0281522,-0.77299684
324,1437067252092,0.6091123,3.332801,-0.38357025
325,1437067252113,0.75388736,2.7014718,0.16681933
326,1437067252133,0.18669902,1.2335626,0.4093328
327,1437067252153,-0.10010222,0.22013725,0.28013483
328,1437067252173,-0.073529586,-0.08285192,0.053198393
329,1437067252190,0.15615575,0.21830465,0.23431994
330,1437067252211,0.09934528,0.36155254,0.33633444
331,1437067252234,-0.22655132,0.6104801,0.24806441
332,1437067252254,-0.39850992,0.8230612,0.16804107
333,1437067252271,-0.40278596,0.88689667,0.053198393
334,1437067252290,-0.16668653,0.93851477,-0.07294528
335,1437067252313,-0.1110978,1.0313662,-0.27453083
336,1437067252336,-0.31757027,0.66576344,-0.36677146
337,1437067252355,-0.28580526,0.62086487,-0.26811674
338,1437067252377,-0.07322416,0.7100512,-0.17221087
339,1437067252393,0.08437908,0.34444833,-0.0927984
340,1437067252413,0.16104268,0.10162939,-0.20489217
341,1437067252431,-0.14469539,0.32031912,-0.52498555
342,1437067252452,-0.5661924,0.5839075,-0.87776023
343,1437067252472,-1.2952601,0.67095584,-1.1960211
344,1437067252491,-2.1800983,1.0399183,-1.3780589
345,1437067252544,-3.2546103,1.1947727,-1.6633329
346,1437067252545,-3.3996909,0.63949627,-1.9812884
347,1437067252562,-2.998658,-1.5574807,-1.6266811
348,1437067252571,-1.4550014,-2.4087214,-1.078124
349,1437067252597,-0.67401016,-1.71936,-0.36860406
350,1437067252615,-1.0817627,-0.2847429,-0.57293844
351,1437067252631,-0.5903216,-0.6763075,-1.0002388
352,1437067252651,0.24870183,-0.12561248,-0.79254454
353,1437067252671,0.5666572,0.3154322,-0.32340005
354,1437067252691,0.81436306,0.42447168,0.46583787
355,1437067252715,1.0522951,0.4278314,1.2370552
356,1437067252731,1.1937103,0.56069463,1.6426697
357,1437067252755,1.2877836,0.25404024,1.7175007
358,1437067252775,1.3140508,-0.63660127,1.570893
359,1437067252794,1.4017099,-1.2459394,1.104192
360,1437067252814,1.4661562,-1.3219922,0.41330343
361,1437067252834,1.2251699,-1.7703671,-0.10837546
362,1437067252854,1.0278604,-2.587705,-0.22505073
363,1437067252874,1.1509498,-2.1842284,-0.02926841
364,1437067252894,1.0886415,-1.4603531,-0.137697
365,1437067252914,0.8357433,-1.1204065,-0.28033403
366,1437067252934,0.4786926,-1.1946267,-0.17495976
367,1437067252952,0.06391509,-1.4307262,0.088323146
368,1437067252974,0.12316902,-1.5996304,0.25234047
369,1437067252994,0.4114974,-1.5681708,0.1869779
370,1437067253012,0.073078066,-0.9252351,-0.02774125
371,1437067253033,-0.31909743,-0.2511453,-0.6422717
372,1437067253054,1.2395252,-0.34888375,-0.58301777
373,1437067253074,1.2670141,-1.410873,0.94292367
374,1437067253095,1.0519897,1.6019144,-0.6211968
375,1437067253114,0.46158838,4.419836,-2.0350444
376,1437067253135,-1.021287,2.4064238,-0.44587854
377,1437067253153,-1.6581141,-1.7752541,0.37054288
