id,attr_time,attr_x,attr_y,attr_z
1,1438258290004,1.6813282,9.417592,-0.11911154
2,1438258290021,1.6950948,9.53012,-0.019752163
3,1438258290044,1.6950948,9.55885,0.06584055
4,1438258290064,1.6460136,9.433753,-0.08379706
5,1438258290082,1.7016789,9.442732,-0.005985504
6,1438258290102,1.5711949,9.543288,-0.020949265
7,1438258290124,1.5448587,9.478046,-0.038307227
8,1438258290143,1.6400281,9.384672,0.090979666
9,1438258290161,1.697489,9.452309,-0.28491
10,1438258290182,1.7034745,9.542689,0.2124854
11,1438258290201,1.6340426,9.483433,-0.110731825
12,1438258290223,1.6717514,9.442732,-0.050278235
13,1438258290244,1.5825673,9.385869,-0.12270284
14,1438258290264,1.5688007,9.504382,0.16819267
15,1438258290284,1.6364368,9.485827,0.004189853
16,1438258290303,1.6927006,9.461287,0.020949265
17,1438258290323,1.6585833,9.457695,-0.18136078
18,1438258290344,1.6496049,9.518148,0.1328782
19,1438258290365,1.6101006,9.487623,-0.08319851
20,1438258290385,1.6412252,9.495404,0.04309563
21,1438258290403,1.6262615,9.461885,-0.051475335
22,1438258290423,1.6591818,9.492412,-0.17896658
23,1438258290444,1.6801311,9.45171,0.107739076
24,1438258290464,1.6065093,9.467871,0.089184016
25,1438258290484,1.6867151,9.559449,-0.030526072
26,1438258290505,1.5286977,9.446322,-0.005985504
27,1438258290524,1.5849615,9.411607,0.019752163
28,1438258290542,1.6071079,9.43914,-0.17298107
29,1438258290561,1.6621746,9.516952,0.14544775
30,1438258290591,1.70946,9.520543,-0.01316811
31,1438258290649,1.6837224,9.46009,0.022146367
32,1438258290650,1.5861586,9.435549,-0.10235212
33,1438258290651,1.5759833,9.534309,0.0724246
34,1438258290671,1.5460558,9.537302,0.05207389
35,1438258290682,1.6095021,9.450513,-0.039504327
36,1438258290707,1.5388732,9.409213,-0.04249708
37,1438258290722,1.5490485,9.474455,-0.039504327
38,1438258290742,1.5867572,9.446921,0.06344634
39,1438258290764,1.6065093,9.470863,-0.12330139
40,1438258290783,1.5921441,9.528324,0.046686932
41,1438258290803,1.5879543,9.503783,-0.0724246
42,1438258290824,1.5831659,9.437345,-0.02813187
43,1438258290843,1.5245079,9.461885,0.107140526
44,1438258290864,1.5388732,9.482835,0.107140526
45,1438258290885,1.5849615,9.457097,-0.022146367
46,1438258290903,1.5209166,9.504981,0.06344634
47,1438258290924,1.6208745,9.470863,-0.05566519
48,1438258290944,1.6699557,9.516952,-0.01436521
49,1438258290965,1.632247,9.4535055,-0.05327099
50,1438258290985,1.6292542,9.427169,-0.045489833
51,1438258291005,1.6017209,9.513959,-0.008379706
52,1438258291025,1.6436194,9.48044,-0.06823475
53,1438258291042,1.6077064,9.497798,-0.019752163
54,1438258291063,1.6190789,9.43914,-0.015562311
55,1438258291085,1.5825673,9.479243,0.089184016
56,1438258291104,1.6274586,9.518747,-0.05327099
57,1438258291122,1.584363,9.465476,-0.10654198
58,1438258291145,1.5987282,9.454104,0.03232172
59,1438258291166,1.5939398,9.513959,0.040102877
60,1438258291182,1.6292542,9.478046,0.037708677
61,1438258291205,1.6436194,9.462483,-0.078410104
62,1438258291223,1.6130934,9.473258,0.02932897
63,1438258291244,1.5628152,9.515156,0.0796072
64,1438258291265,1.5622166,9.485827,-0.054468088
65,1438258291284,1.6220716,9.478046,0.014963761
66,1438258291304,1.6011224,9.436746,0.04189853
67,1438258291326,1.6418238,9.463681,-0.090979666
68,1438258291395,1.6687586,9.481637,-0.004189853
69,1438258291396,1.6424223,9.491214,-0.07062895
70,1438258291397,1.6077064,9.494206,0.02813187
71,1438258291404,1.6250644,9.48044,0.019752163
72,1438258291431,1.738789,9.392453,0.10594343
73,1438258291444,1.650802,9.427768,0.044292733
74,1438258291462,1.5640123,9.490017,0.027533319
75,1438258291483,1.5251064,9.523536,0.11671733
76,1438258291503,1.5388732,9.499594,-0.08619126
77,1438258291525,1.6921021,9.450513,0.08319851
78,1438258291543,1.7375919,9.448118,0.11372458
79,1438258291564,1.6825253,9.457097,0.092176765
80,1438258291582,1.6340426,9.460688,-0.08140286
81,1438258291603,1.6292542,9.497798,-0.0047884034
82,1438258291624,1.6573862,9.456498,-0.05805939
83,1438258291642,1.7022774,9.436746,-0.02633622
84,1438258291664,1.6831238,9.506178,0.2100912
85,1438258291686,1.6609775,9.4696665,-0.025139118
86,1438258291706,1.6430209,9.471462,-0.037708677
87,1438258291726,1.5652094,9.4696665,0.008379706
88,1438258291744,1.5598224,9.514558,0.09816227
89,1438258291765,1.6106992,9.470863,-0.13227965
90,1438258291786,1.685518,9.498397,0.06404489
91,1438258291806,1.7232267,9.458893,0.11552023
92,1438258291826,1.6244658,9.419987,-0.002992752
93,1438258291844,1.6651673,9.452907,-0.04129998
94,1438258291864,1.5933412,9.479243,-0.0712275
95,1438258291885,1.6017209,9.470863,-0.090979666
96,1438258291910,1.5855601,9.51336,0.11611878
97,1438258291925,1.6454151,9.472659,-0.013766659
98,1438258291947,1.7417817,9.428367,-0.03232172
99,1438258291963,1.6741456,9.436746,-0.050876785
100,1438258291984,1.6352397,9.512163,-0.065242
101,1438258292004,1.62686,9.522937,-0.08080431
102,1438258292024,1.6519991,9.457695,-0.017956512
103,1438258292103,1.6376339,9.437943,-0.016759412
104,1438258292104,1.6208745,9.486425,0.12270284
105,1438258292105,1.6154876,9.469068,-0.11791443
106,1438258292106,1.6340426,9.495404,0.049081136
107,1438258292123,1.7004818,9.528923,-0.04189853
108,1438258292151,1.714847,9.481039,0.008379706
109,1438258292166,1.6711528,9.427169,-0.034715924
110,1438258292183,1.6699557,9.45171,-0.06284779
111,1438258292205,1.6573862,9.510966,0.033518825
112,1438258292225,1.6280571,9.452907,-0.16400282
113,1438258292254,1.6292542,9.455301,0.11252748
114,1438258292264,1.6041151,9.435549,-0.051475335
115,1438258292290,1.6101006,9.475652,-0.010175358
116,1438258292304,1.6525977,9.519944,0.095169514
117,1438258292326,1.6657659,9.481637,-0.12270284
118,1438258292344,1.6897079,9.450513,0.08678981
119,1438258292364,1.6184803,9.497798,-0.076015905
120,1438258292386,1.6136919,9.500193,0.03172317
121,1438258292406,1.5927427,9.48882,-0.02633622
122,1438258292427,1.6663644,9.459491,-0.05626374
123,1438258292444,1.6921021,9.428367,0.055066638
124,1438258292466,1.6663644,9.457097,0.008978256
125,1438258292484,1.6382325,9.523536,0.04309563
126,1438258292506,1.5975311,9.475053,-0.05626374
127,1438258292525,1.5807717,9.4696665,0.014963761
128,1438258292545,1.6466122,9.470863,0.027533319
129,1438258292564,1.6819267,9.469068,-0.05207389
130,1438258292584,1.6801311,9.483433,-0.089184016
131,1438258292607,1.6753427,9.442133,-0.065242
132,1438258292627,1.6376339,9.4696665,0.044891283
133,1438258292644,1.6430209,9.440337,0.009576807
134,1438258292684,1.5879543,9.501988,0.029927522
135,1438258292685,1.6430209,9.510966,0.0023942017
136,1438258292703,1.6675615,9.489418,-0.036511578
137,1438258292724,1.6597804,9.45171,-0.0023942017
138,1438258292744,1.6531962,9.440936,-0.05805939
139,1438258292764,1.7070658,9.463082,-0.0796072
140,1438258292784,1.6819267,9.427169,0.03232172
141,1438258292811,1.6292542,9.451111,-0.089782566
142,1438258292837,1.596334,9.504382,0.05626374
143,1438258292845,1.6627731,9.461885,-0.12449849
144,1438258292864,1.6843209,9.4535055,-0.020949265
145,1438258292885,1.6801311,9.515755,-0.009576807
146,1438258292904,1.6412252,9.473258,0.05686229
147,1438258292924,1.6406267,9.473856,-0.037110128
148,1438258292944,1.6011224,9.449316,-0.037708677
149,1438258292966,1.6831238,9.467272,-0.053869538
150,1438258292985,1.6579847,9.516354,0.021547815
151,1438258293005,1.6292542,9.478046,0.110133275
152,1438258293025,1.6579847,9.43914,-0.061650693
153,1438258293044,1.673547,9.504981,0.060453594
154,1438258293065,1.7363948,9.456498,-0.074220255
155,1438258293086,1.7250223,9.464878,-0.054468088
156,1438258293106,1.661576,9.43076,0.044891283
157,1438258293124,1.6226702,9.521142,0.008379706
158,1438258293144,1.6867151,9.492412,-0.044891283
159,1438258293167,1.6956934,9.483433,0.010773907
160,1438258293185,1.6436194,9.430161,0.07182605
161,1438258293207,1.6448165,9.442732,-0.0712275
162,1438258293225,1.6675615,9.49301,0.075417355
163,1438258293245,1.6843209,9.436746,-0.018555064
164,1438258293269,1.6950948,9.487623,-0.014963761
165,1438258293287,1.6496049,9.537901,0.008379706
166,1438258293309,1.6310499,9.475652,0.022744916
167,1438258293329,1.654992,9.448717,0.030526072
168,1438258293344,1.7274165,9.442133,-0.04070143
169,1438258293367,1.7076644,9.443929,-0.027533319
170,1438258293384,1.6585833,9.474455,-0.044292733
171,1438258293404,1.6903064,9.516952,-0.04189853
172,1438258293425,1.6861166,9.498995,-0.1316811
173,1438258293448,1.7274165,9.428367,-0.009576807
174,1438258293470,1.7046716,9.450513,-0.01436521
175,1438258293489,1.6136919,9.46847,0.04369418
176,1438258293507,1.602918,9.4457245,-0.108337626
177,1438258293527,1.6172832,9.467272,-0.08020575
178,1438258293596,1.6843209,9.499594,-0.04189853
179,1438258293597,1.6944963,9.472659,-0.10414778
180,1438258293598,1.6891093,9.482835,0.011372458
181,1438258293605,1.6777369,9.49301,0.004189853
182,1438258293634,1.6196774,9.472659,-0.044891283
183,1438258293645,1.6400281,9.478046,-0.08798691
184,1438258293667,1.6729485,9.491813,-0.107739076
185,1438258293690,1.6328455,9.467871,-0.065242
186,1438258293704,1.5849615,9.46009,0.027533319
187,1438258293728,1.6394296,9.481637,-0.11731588
188,1438258293746,1.6915035,9.464279,-0.01616086
189,1438258293768,1.6687586,9.411008,-0.22026655
190,1438258293785,1.6897079,9.440337,-0.013766659
191,1438258293807,1.6867151,9.541492,-0.12808979
192,1438258293827,1.7058687,9.582792,-0.1400608
193,1438258293847,1.8261774,9.513959,-0.15682021
194,1438258293867,1.7357962,9.395446,-0.15263036
195,1438258293889,1.7729063,9.549872,-0.18734628
196,1438258293907,1.6597804,9.510966,-0.01316811
197,1438258293927,1.5819688,9.470863,-0.18255788
198,1438258293947,1.6178818,9.419987,-0.16639702
199,1438258293967,1.7351977,9.460688,-0.28072014
200,1438258293990,1.7842789,9.543288,-0.2741361
201,1438258294009,1.5729905,9.467272,0.089184016
202,1438258294029,1.4951789,9.423578,-0.10654198
203,1438258294049,1.4646529,9.496002,-0.3441665
204,1438258294068,1.5436616,9.516952,-0.2100912
205,1438258294088,1.5777789,9.475053,-0.16519992
206,1438258294107,1.6406267,9.483433,-0.077811554
207,1438258294130,1.8064252,9.531916,-0.12928689
208,1438258294149,1.7782934,9.49301,-0.12090719
209,1438258294167,1.7603368,9.478046,-0.31423897
210,1438258294186,1.8022354,9.548675,-0.11671733
211,1438258294207,1.958457,9.59177,-0.05327099
212,1438258294229,2.0254946,9.513959,-0.06943185
213,1438258294256,2.0033484,9.595961,-0.061650693
214,1438258294266,1.9758149,9.654618,0.0700304
215,1438258294314,2.018312,9.788095,0.16819267
216,1438258294315,2.1589713,9.720459,0.16699557
217,1438258294335,2.1859062,9.698313,0.10115502
218,1438258294345,2.3145945,9.712678,0.08439561
219,1438258294366,2.4067712,10.056845,0.107140526
220,1438258294385,2.4720132,10.234613,-0.34955344
221,1438258294405,2.9221232,10.811616,0.25797522
222,1438258294425,2.8431146,10.951677,1.2354081
223,1438258294446,2.4600422,10.697293,1.3090298
224,1438258294466,2.179322,9.813833,2.2182279
225,1438258294486,2.8921957,8.671799,3.345897
226,1438258294508,3.3033998,7.8410106,2.135628
227,1438258294525,2.9634233,8.962095,1.407192
228,1438258294549,1.7753005,8.459911,2.4474726
229,1438258294568,1.1324574,7.491457,4.187459
230,1438258294589,1.1354501,6.5577183,5.0493712
231,1438258294610,2.348712,6.7085533,4.835689
232,1438258294628,3.0202854,7.7129207,4.010886
233,1438258294648,2.8072014,7.6321163,3.958214
234,1438258294669,2.3666685,7.7254906,4.5382094
235,1438258294688,2.4067712,7.800309,4.1455603
236,1438258294709,2.1853075,7.3047094,4.1958385
237,1438258294727,2.4067712,7.7679873,4.8309007
238,1438258294746,2.3289597,7.617751,5.4641666
239,1438258294769,1.851915,6.929418,5.1720743
240,1438258294788,2.1679497,7.282563,4.8105497
241,1438258294808,2.5683799,7.7548194,4.2658687
242,1438258294829,3.1998506,7.9355817,4.959589
243,1438258294849,3.1507695,7.9170265,4.7979803
244,1438258294870,2.6461914,7.559692,5.2480903
245,1438258294889,2.5713725,7.302315,4.994903
246,1438258294909,2.8508956,7.0730705,5.2660465
247,1438258294929,2.2547395,7.2322845,5.2241483
248,1438258294949,2.5258827,6.5325794,4.3556514
249,1438258294970,3.0992942,5.713164,4.6806645
250,1438258294989,3.3877954,6.5499372,4.9338512
251,1438258295010,3.506907,7.480085,4.8668137
252,1438258295079,3.4117374,7.327454,5.5377884
253,1438258295080,2.7192147,7.2867527,5.0266266
254,1438258295081,3.1304188,6.6229606,4.2251673
255,1438258295089,3.496133,6.269816,3.9390604
256,1438258295116,3.976769,6.5457473,3.7594953
257,1438258295128,4.009091,8.151658,3.469797
258,1438258295146,4.8817773,8.523956,2.1888988
259,1438258295169,5.9585695,8.010999,1.9835961
260,1438258295192,5.8604074,6.9844847,2.7030537
261,1438258295229,6.1261635,6.3589997,2.9765913
262,1438258295230,5.9783216,6.417658,3.1878796
263,1438258295247,6.3542113,7.1065893,2.8149827
264,1438258295268,6.3871317,8.550891,1.9806033
265,1438258295289,6.096236,9.673173,1.2018893
266,1438258295309,5.1367598,9.737218,1.3192052
267,1438258295327,5.8083334,10.509348,1.3036429
268,1438258295349,5.6886234,10.845734,0.9828198
269,1438258295370,6.655282,9.141062,0.770933
270,1438258295389,5.8358665,6.4182563,1.5448587
271,1438258295409,4.286818,7.563882,3.4835634
272,1438258295429,3.894169,12.044032,2.9700072
273,1438258295449,3.354875,17.241245,2.1164744
274,1438258295469,2.2062569,16.560694,-2.3068132
275,1438258295487,2.0578163,4.795586,0.5506664
276,1438258295507,1.9075803,1.6011224,5.841852
277,1438258295526,1.9488802,4.7429137,3.3704374
278,1438258295546,1.3994108,9.658808,0.13227965
279,1438258295566,0.5650316,13.843873,-1.6262615
280,1438258295589,1.7064673,13.389573,-1.06123
281,1438258295611,2.870648,9.31524,0.9792285
282,1438258295633,1.8429368,6.897695,2.9592333
283,1438258295651,0.52971715,6.985682,2.8000188
284,1438258295670,-0.39624038,9.121908,0.16160862
285,1438258295688,-0.7398083,10.964247,-0.6428431
286,1438258295707,0.29508537,11.038467,1.7908629
287,1438258295728,0.17357962,9.923966,2.6102784
288,1438258295757,-0.61112,8.377312,2.0374656
289,1438258295811,-1.4526819,7.745841,0.3681085
290,1438258295812,0.07182605,8.656835,0.7565677
291,1438258295813,0.24720132,9.194333,2.4839842
292,1438258295832,0.24839842,9.902418,3.364452
293,1438258295847,-0.016759412,9.768343,3.132813
294,1438258295875,-0.6266823,6.379949,3.6475663
295,1438258295890,-0.1388637,6.4619503,3.8534677
296,1438258295906,0.6757634,9.959281,3.2237926
297,1438258295929,1.4173675,10.924144,2.4468741
298,1438258295947,-0.04249708,8.24563,2.8904
299,1438258295970,0.011372458,6.1357403,2.0123265
300,1438258295992,-0.55605334,3.6326025,3.537433
301,1438258296007,-0.6895301,4.553173,2.8520927
302,1438258296027,-0.21308395,6.71813,3.1364043
303,1438258296049,0.86490536,6.4032927,3.6774938
304,1438258296071,0.2741361,5.0822916,5.477335
305,1438258296090,3.245939,6.730101,4.903325
306,1438258296110,0.5117606,7.215525,5.275025
307,1438258296130,-2.332551,8.158841,3.4715924
308,1438258296149,-1.690905,6.7426705,3.6900635
309,1438258296169,3.430891,4.462792,6.205172
310,1438258296194,4.8081555,4.045004,5.786187
311,1438258296215,3.9205053,4.699219,7.4345946
312,1438258296230,1.3946224,6.203377,8.794501
313,1438258296247,0.97264445,6.1225724,8.734647
314,1438258296269,2.9179332,6.411672,8.74961
315,1438258296291,3.5248635,6.2901664,8.21271
316,1438258296311,2.4241292,4.7668557,8.738237
317,1438258296331,0.9115923,4.8817773,8.55149
318,1438258296348,0.96546185,3.8666358,9.173384
319,1438258296369,0.9331401,3.5511997,9.002198
320,1438258296389,0.6823475,4.56694,9.198523
321,1438258296412,1.3455414,4.7680526,9.121908
322,1438258296431,2.6635494,5.889736,9.610326
323,1438258296452,4.8344917,6.4487824,10.552444
324,1438258296469,5.1235914,5.4659624,14.277224
325,1438258296492,-0.04249708,4.3873744,14.784196
326,1438258296561,-2.1122844,3.46022,13.368025
327,1438258296562,-2.7329812,2.1877017,10.38485
328,1438258296563,-2.4253263,2.1942859,7.824251
329,1438258296571,-1.9512744,1.1611878,7.0407486
330,1438258296589,-1.8166006,0.46447513,7.1287355
331,1438258296611,-1.5622166,-0.3788824,7.98167
332,1438258296629,-1.4957775,-0.4914099,8.98484
333,1438258296673,-1.7340006,-0.5434838,9.768343
334,1438258296674,-1.1701661,1.4317327,10.007165
335,1438258296698,-1.2096704,2.8095956,10.238205
336,1438258296709,-1.6346412,3.5206735,9.3733
337,1438258296733,-2.3810337,3.651756,8.72507
338,1438258296751,-2.7455509,3.4159272,8.471284
339,1438258296769,-2.4905684,3.0759506,8.968081
340,1438258296791,-2.4115596,2.665345,8.935161
341,1438258296811,-2.1894975,2.44029,8.651448
342,1438258296831,-1.8028339,2.3786395,8.334815
343,1438258296851,-1.6130934,2.272696,8.077438
344,1438258296871,-1.6807296,2.208651,8.1720085
345,1438258296893,-1.6424223,2.2505496,8.762179
346,1438258296911,-1.2324153,2.2272062,10.502765
347,1438258296931,-1.5699978,2.2828712,10.147824
348,1438258296952,-1.8842367,2.0081367,8.735245
349,1438258296969,-1.8866309,1.9895816,8.755595
350,1438258296991,-1.6244658,1.8848352,8.8884735
351,1438258297011,-1.5771804,1.6819267,8.736442
352,1438258297031,-1.2072762,1.4885949,9.048286
353,1438258297050,-0.80325466,1.7471687,9.377489
354,1438258297071,-0.75596917,1.9111716,9.269152
355,1438258297090,-1.2910733,1.6585833,8.902241
356,1438258297112,-1.5005659,1.7884687,8.92319
357,1438258297131,-1.2539631,1.9081788,9.302073
358,1438258297151,-1.1061212,2.1158757,9.34397
359,1438258297175,-1.1474211,2.088941,9.015367
360,1438258297199,-1.5652094,1.8644845,8.746018
361,1438258297209,-1.7585411,1.8602947,8.711303
362,1438258297292,-1.5544355,1.9847932,9.186552
363,1438258297293,-1.2557588,2.2756886,9.227253
364,1438258297294,-1.1815386,2.1296425,9.101558
365,1438258297295,-1.6502035,1.6454151,8.766968
366,1438258297313,-1.6005238,1.8231846,8.874108
367,1438258297329,-1.1731589,2.297835,9.059061
368,1438258297352,-1.3215994,2.3475149,8.640076
369,1438258297369,-2.3535004,1.2856863,8.279149
370,1438258297389,-2.1392193,1.6795325,9.19553
371,1438258297411,-1.2204443,2.48159,9.923966
372,1438258297430,-0.7158663,2.3953989,8.932767
373,1438258297450,-1.1976994,1.353921,8.517971
374,1438258297468,-1.714847,1.5310919,8.917204
375,1438258297492,-1.3311762,2.2547395,9.52174
376,1438258297511,-0.31783026,2.5420437,9.509171
377,1438258297531,-0.2208651,2.0332758,8.726267
378,1438258297551,-0.7374141,1.6208745,9.100959
379,1438258297571,-0.76075757,1.5753847,9.303867
380,1438258297591,-0.58418524,1.8028339,9.069236
381,1438258297612,-0.29688102,2.046444,9.0476885
382,1438258297632,-0.29269117,2.054225,9.045893
383,1438258297651,0.18076223,1.9907787,9.537302
384,1438258297671,0.21188685,2.2002714,9.425373
385,1438258297690,0.55126494,1.9021933,9.404425
386,1438258297712,0.51714754,2.042254,9.099762
387,1438258297731,0.20051439,1.6519991,8.901043
388,1438258297752,-0.35553896,1.8291701,8.874108
389,1438258297772,-0.61052144,1.7884687,8.910022
390,1438258297791,-0.6841431,1.905186,9.130288
391,1438258297811,-0.46447513,1.9722236,9.107543
392,1438258297831,-0.219668,2.079364,9.165004
393,1438258297852,0.02932897,2.1601684,9.218275
394,1438258297872,0.1388637,2.3080103,9.14226
395,1438258297892,0.18136078,2.3720553,9.136273
396,1438258297912,0.15023616,2.4372973,9.052477
397,1438258297930,0.15981296,2.4678235,9.173384
398,1438258298041,0.047884032,2.3307555,9.208099
399,1438258298042,-0.0664391,2.4887726,9.222465
400,1438258298043,-0.17896658,2.3343468,9.150041
401,1438258298044,-0.272939,2.1493945,9.082404
402,1438258298045,-0.24420857,2.369661,9.002797
403,1438258298061,-0.13227965,2.3588872,9.101558
404,1438258298070,-0.021547815,2.3301568,9.053674
405,1438258298090,0.014963761,2.007538,8.944139
406,1438258298110,-0.060453594,2.3415294,9.126099
407,1438258298133,-0.027533319,2.2505496,9.0237465
408,1438258298160,0.107140526,2.1200657,9.091382
409,1438258298198,0.12090719,2.2619221,9.062054
410,1438258298199,0.14963761,2.0207062,9.072228
411,1438258298240,0.1412579,1.8076223,8.816648
412,1438258298241,0.39983168,2.6503813,8.885481
413,1438258298249,0.34356794,2.5671828,8.895657
414,1438258298269,0.20350714,2.710835,9.516952
415,1438258298290,-0.16759412,2.9514523,9.7162695
