id,attr_time,attr_x,attr_y,attr_z
1,1438346160017,1.9440918,9.408614,-0.9516952
2,1438346160036,1.9776106,9.449316,-0.97623575
3,1438346160057,1.9554642,9.487024,-0.7254431
4,1438346160076,1.8728642,9.416994,-0.52612585
5,1438346160104,1.8626889,9.41041,-0.5710171
6,1438346160120,1.934515,9.3822775,-0.8870517
7,1438346160140,1.9542671,9.376891,-1.0720038
8,1438346160157,1.934515,9.419388,-0.9163807
9,1438346160176,1.9123687,9.462483,-0.6619968
10,1438346160228,1.9351135,9.439739,-0.5267244
11,1438346160229,1.965041,9.403227,-0.6607997
12,1438346160244,1.9782091,9.415796,-0.90740246
13,1438346160257,1.9662381,9.424176,-0.9696517
14,1438346160276,1.9315223,9.456498,-0.66020113
15,1438346160300,1.9877859,9.41879,-0.5805939
16,1438346160316,1.9590555,9.3499565,-0.6793547
17,1438346160339,1.9339164,9.3026705,-0.8283938
18,1438346160367,1.899799,9.399037,-0.9959879
19,1438346160378,1.9482816,9.454104,-0.96785605
20,1438346160403,2.0242975,9.463082,-0.7691373
21,1438346160419,1.9895816,9.421184,-0.521936
22,1438346160440,1.9428947,9.391256,-0.60693014
23,1438346160459,1.9907787,9.360131,-0.789488
24,1438346160477,2.0009542,9.435549,-1.0378864
25,1438346160500,2.018312,9.478046,-0.94690675
26,1438346160516,2.0015526,9.454104,-0.6410475
27,1438346160538,1.9692309,9.393052,-0.5315128
28,1438346160560,1.9895816,9.3104515,-0.7445967
29,1438346160578,1.9494787,9.318831,-1.0097545
30,1438346160600,1.9285295,9.401431,-0.9900024
31,1438346160618,1.9883845,9.426571,-0.7763199
32,1438346160639,2.0153193,9.473856,-0.5279215
33,1438346160660,2.0177135,9.437345,-0.6799533
34,1438346160678,2.0614076,9.389461,-0.7038953
35,1438346160698,1.982399,9.385869,-0.85054016
36,1438346160716,1.9393034,9.450513,-0.7637503
37,1438346160740,1.965041,9.436746,-0.6877344
38,1438346160763,1.9812019,9.384073,-0.6266823
39,1438346160780,1.9033904,9.425972,-0.61052144
40,1438346160800,1.8698715,9.442133,-0.7266402
41,1438346160818,1.9692309,9.392453,-0.86969376
42,1438346160837,2.047641,9.389461,-0.8367735
43,1438346160857,1.9913772,9.411607,-0.7110779
44,1438346160878,1.9255368,9.449914,-0.5374983
45,1438346160897,1.9213469,9.417592,-0.60573304
46,1438346160984,1.8950106,9.405622,-0.8319851
47,1438346160985,1.9237411,9.356541,-0.91099375
48,1438346160986,1.963844,9.416395,-0.87089086
49,1438346160987,1.9393034,9.449914,-0.6781576
50,1438346161003,1.8130093,9.482835,-0.581791
51,1438346161027,1.7848774,9.431957,-0.7212533
52,1438346161104,1.9620483,9.348161,-0.91458505
53,1438346161105,2.0296845,9.385271,-0.961272
54,1438346161106,2.0003555,9.456498,-0.79248077
55,1438346161107,1.8596961,9.484032,-0.587178
56,1438346161145,1.7944542,9.490017,-0.5734113
57,1438346161146,1.899799,9.41041,-0.8026561
58,1438346161159,1.9644425,9.350554,-0.96785605
59,1438346161177,1.9428947,9.380483,-0.90859956
60,1438346161197,1.8986019,9.472659,-0.65780693
61,1438346161241,1.9075803,9.564238,-0.5602432
62,1438346161242,1.91596,9.481637,-0.6183026
63,1438346161261,1.9309237,9.482236,-0.5590461
64,1438346161279,2.367267,9.386468,-0.8798691
65,1438346161301,2.2290018,9.698911,-1.0241197
66,1438346161317,1.4862007,9.93474,-0.10175357
67,1438346161340,1.4119805,9.859323,0.25079262
68,1438346161358,1.8656816,9.400234,-1.146224
69,1438346161378,2.593519,8.554482,-1.0127473
70,1438346161401,1.946486,8.433576,-0.6087258
71,1438346161418,1.4856021,9.743204,-0.29209262
72,1438346161437,1.2234371,9.559449,0.005985504
73,1438346161458,1.6184803,9.427169,-0.30825347
74,1438346161481,1.8656816,9.425972,-0.5883751
75,1438346161501,1.8680758,9.318831,-0.29688102
76,1438346161521,1.6154876,9.512163,-0.2160767
77,1438346161539,1.5466543,9.344569,-0.49320555
78,1438346161558,1.525705,9.255385,0.009576807
79,1438346161579,1.395221,9.259575,0.38187516
80,1438346161597,1.3156139,9.464279,0.9127894
81,1438346161620,0.8690952,8.93935,1.6765398
82,1438346161638,1.2838906,8.930971,0.7757214
83,1438346161668,1.882441,7.98167,0.24600422
84,1438346161683,1.3581109,7.9822683,1.264737
85,1438346161703,0.52732295,8.389283,0.7529764
86,1438346161717,0.92535895,8.039131,0.2621651
87,1438346161740,2.4827871,7.745841,-0.6793547
88,1438346161759,1.9602526,8.078036,1.5011644
89,1438346161778,2.2637177,9.533113,2.022502
90,1438346161798,2.0398598,11.034876,2.1751323
91,1438346161822,2.267309,11.693281,0.42676646
92,1438346161842,1.3856442,13.414712,1.2012907
93,1438346161860,1.471237,14.924256,-0.18674773
94,1438346161878,3.1495724,16.704945,0.49200845
95,1438346161900,3.7205894,17.465103,-0.39923313
96,1438346161921,3.4332852,18.206707,-1.8770541
97,1438346161940,2.9041667,19.608511,0.065242
98,1438346161960,1.9470845,17.549498,3.2680852
99,1438346161981,2.9777884,13.030443,3.3782187
100,1438346162000,2.8269536,9.198523,1.3054385
101,1438346162019,2.106299,6.132149,-0.29328972
102,1438346162042,1.0133458,3.539827,-0.035913024
103,1438346162059,0.99179804,1.4939818,0.8619126
104,1438346162080,0.15382746,-0.22984336,1.3078327
105,1438346162101,-0.27593175,-0.7164649,0.7667431
106,1438346162120,-0.52612585,-1.1306617,-2.043451
107,1438346162139,-0.8355764,-1.1510124,-1.8950106
108,1438346162160,-0.9247604,-0.89902276,-0.039504327
109,1438346162181,-0.92655605,-0.66139823,1.1617863
110,1438346162200,-0.7248446,-0.4261679,1.3443443
111,1438346162219,-0.36990416,1.5873557,1.2539631
112,1438346162239,0.88166475,4.1820717,0.52732295
113,1438346162259,2.6797101,15.779585,-0.20350714
114,1438346162282,7.1766195,19.608511,-2.2619221
115,1438346162301,5.1840453,19.01894,2.0416555
116,1438346162361,6.2746043,16.331448,-0.53091425
117,1438346162372,6.997653,19.608511,1.9201498
118,1438346162373,6.5726824,19.608511,0.81402856
119,1438346162382,7.0156097,19.608511,2.3493104
120,1438346162399,4.7722425,19.608511,0.4225766
121,1438346162420,2.4301147,19.608511,2.496554
122,1438346162438,1.0636241,15.664064,2.753332
123,1438346162458,1.4191631,9.97604,1.8896236
124,1438346162480,1.283292,5.0930657,1.2455834
125,1438346162500,0.23942018,2.3253684,0.38965634
126,1438346162520,-0.57999533,0.32680854,0.6835446
127,1438346162539,-0.9995792,-0.5374983,0.8343793
128,1438346162559,-0.801459,-1.1917139,0.54288524
129,1438346162582,0.08678981,-0.9463082,0.09696517
130,1438346162602,0.7422025,-0.5243302,0.19033903
131,1438346162622,1.1498153,-0.30466217,0.7942764
132,1438346162642,0.52253455,0.42437226,2.1338322
133,1438346162661,-0.5770026,0.6314707,0.66379243
134,1438346162682,-1.3144168,-1.0702082,0.30346507
135,1438346162702,-0.61052144,-0.5638345,-0.5590461
136,1438346162722,0.6979098,1.8381484,0.1933318
137,1438346162742,2.006341,8.484452,-3.3051953
138,1438346162762,8.130709,19.608511,-7.4842744
139,1438346162779,3.2609026,19.608511,8.27496
140,1438346162802,1.7890673,16.506824,1.9554642
141,1438346162822,5.5581393,19.608511,-2.4187422
142,1438346162842,6.1219735,19.608511,0.30705637
143,1438346162861,7.095815,19.608511,1.9363106
144,1438346162881,5.473145,19.252974,-0.3417723
145,1438346162902,3.7660792,15.875353,0.9828198
146,1438346162923,1.9710265,11.692682,1.1935096
147,1438346162942,0.87089086,7.865551,1.8076223
148,1438346162963,-0.12210429,4.9823337,0.95109665
149,1438346162982,-0.46686932,2.6599581,-0.2148796
150,1438346163002,0.16639702,0.8074445,0.521936
151,1438346163020,-0.15263036,-0.28311434,-0.15622166
152,1438346163045,-0.12449849,-0.6039374,-0.18315643
153,1438346163145,-0.04070143,-0.55365914,-0.26874915
154,1438346163146,0.24061728,-0.557849,-0.55126494
155,1438346163147,1.0229226,-0.40043023,-0.37349546
156,1438346163148,0.91578215,-0.866701,1.5292963
157,1438346163149,-0.17178397,-1.5831659,1.83336
158,1438346163168,-0.7739257,-2.4181437,0.6596026
159,1438346163179,-0.919972,-0.23283611,-0.44771573
160,1438346163200,-0.12509704,1.1773487,3.2429461
161,1438346163219,2.540248,16.525978,2.8215668
162,1438346163240,9.211093,19.608511,1.3976152
163,1438346163260,4.079121,12.345102,1.1306617
164,1438346163281,4.64535,12.8772135,-4.4035354
165,1438346163300,7.165247,19.608511,2.3948002
166,1438346163325,2.5845408,19.608511,1.3006501
167,1438346163342,0.7206547,19.608511,2.5462334
168,1438346163363,1.1665748,19.608511,1.8483237
169,1438346163380,2.397793,18.427572,-0.7116765
170,1438346163402,4.2161894,13.150153,-0.87208796
171,1438346163423,5.54557,9.0429,1.0642227
172,1438346163443,5.1421466,5.783194,1.3413515
173,1438346163463,2.9993362,3.1723173,1.3425486
174,1438346163479,0.7882909,1.0720038,2.9011738
175,1438346163503,-1.5125369,0.14844051,2.2146366
176,1438346163520,-2.207454,-0.091578215,1.9393034
177,1438346163543,-1.6753427,-0.8074445,1.2084733
178,1438346163563,-0.6817489,-0.82719666,-0.86969376
179,1438346163581,-0.034715924,-0.6500258,-1.9740193
180,1438346163603,0.18195933,-0.47764325,-0.65780693
181,1438346163622,-0.5847838,-0.36391866,1.6436194
182,1438346163642,-2.1811178,-0.20530279,3.7056258
183,1438346163664,-1.1647792,0.7906851,-0.31304187
184,1438346163683,0.84814596,2.1613655,0.24061728
185,1438346163703,4.611831,13.325528,-3.0418332
186,1438346163722,14.590864,19.608511,3.594894
187,1438346163742,4.349067,14.626777,6.907272
188,1438346163761,4.18686,13.374609,-7.111976
189,1438346163795,5.805341,19.608511,-0.5482722
190,1438346163809,3.7415388,19.608511,0.7673417
191,1438346163944,5.2965727,19.608511,7.088034
192,1438346163945,3.5087025,19.608511,1.5412674
193,1438346163946,3.2082303,17.732655,0.3561375
194,1438346163947,3.608062,12.928091,0.45250413
195,1438346163948,3.169923,8.725668,0.80924016
196,1438346163949,2.0847511,5.2061915,-0.034117375
197,1438346163950,1.1833342,1.6879122,0.7206547
198,1438346163983,-0.031124622,0.4417302,0.6242881
199,1438346163984,-0.7026982,-0.676362,0.88765025
200,1438346164000,-0.6925228,-0.91578215,-0.6859388
201,1438346164029,-0.31364042,-0.748188,-0.7302315
202,1438346164040,-0.046686932,-0.5650316,-0.5781997
203,1438346164061,0.1921347,-0.41359833,-0.078410104
204,1438346164088,0.25617957,-0.54887074,0.37349546
205,1438346164100,-1.067814,-0.87208796,2.4157495
206,1438346164125,-1.0247183,-0.7757214,0.5093664
207,1438346164140,-0.81283146,0.54168814,-0.50517654
208,1438346164163,0.32561144,1.4652514,1.0528502
209,1438346164183,2.5719712,2.996942,1.8249803
210,1438346164210,10.423157,19.608511,-3.1932666
211,1438346164221,11.44608,19.421165,11.269507
212,1438346164240,2.272696,13.405135,-6.8450227
213,1438346164260,5.475539,19.608511,-2.3888147
214,1438346164280,4.796783,19.608511,1.5316905
215,1438346164300,5.389348,19.608511,4.2521024
216,1438346164320,4.24073,19.49718,-1.2054806
217,1438346164339,4.1521444,15.119983,-0.079008654
218,1438346164359,4.259285,11.207857,0.86610246
219,1438346164381,3.515885,7.8116817,0.4405331
220,1438346164400,2.2511482,4.933253,0.54288524
221,1438346164421,0.97743285,2.5761611,1.1336545
222,1438346164444,0.05566519,1.0115502,1.6112977
223,1438346164463,-0.8002619,-0.06584055,1.7525556
224,1438346164483,-0.89423436,-0.87927055,1.4652514
225,1438346164503,-0.41000703,-0.717662,0.40940848
226,1438346164521,-0.077213004,-0.5506664,-0.24899697
227,1438346164541,-0.23582886,-0.5530606,0.26156655
228,1438346164561,-0.6631939,-0.5686229,0.5291186
229,1438346164582,-0.961272,-0.7493851,-1.5155296
230,1438346164606,-0.9900024,-0.50637364,-0.700304
231,1438346164626,-0.62129533,0.16519992,0.047285482
232,1438346164642,0.08619126,1.0540473,0.18435353
233,1438346164660,4.7285485,15.164275,-3.705027
234,1438346164682,16.511612,19.608511,14.241909
235,1438346164703,4.871602,16.021399,1.3760674
236,1438346164720,6.4577603,15.658678,-9.556456
237,1438346164740,6.4242415,19.608511,-9.118916
238,1438346164764,8.51019,19.608511,-2.1140802
239,1438346164784,7.4603324,19.608511,13.080721
240,1438346164803,4.675277,19.587563,1.8800468
241,1438346164820,4.984728,15.765819,0.15861586
242,1438346164845,4.1012673,10.951078,0.0664391
243,1438346164865,2.610877,6.361394,0.47405192
244,1438346164885,0.97025025,4.349666,-0.7978677
245,1438346164904,0.60932434,2.8485014,0.13467385
246,1438346164922,-0.2789245,1.6208745,0.48003745
247,1438346164945,-1.0708067,0.5979519,-0.480636
248,1438346164961,-0.9768343,-0.6428431,-0.14903906
249,1438346164985,-0.55365914,-0.83617496,0.5069722
250,1438346165005,-0.13227965,-0.7781156,0.8403648
251,1438346165023,-0.11791443,-1.1857284,2.034473
252,1438346165042,-0.7026982,-0.44651863,0.55246204
253,1438346165065,-0.44771573,-0.3513491,-1.6089035
254,1438346165085,0.037708677,-0.16519992,0.43634325
255,1438346165104,-0.109534726,1.8962077,0.43394905
256,1438346165125,0.9127894,1.7836803,-2.132635
257,1438346165140,3.9881415,15.836447,-4.611831
258,1438346165161,14.419679,19.608511,14.639945
259,1438346165181,6.411672,17.985842,4.1796775
260,1438346165201,7.433398,19.17995,-1.5831659
261,1438346165221,6.4218473,19.608511,0.91219085
262,1438346165245,5.4976854,19.608511,-1.3581109
263,1438346165262,7.052121,19.608511,0.035314474
264,1438346165281,6.0639143,19.608511,2.8443117
265,1438346165301,3.210026,16.684593,1.0319009
266,1438346165321,2.8742392,12.464214,1.0336965
267,1438346165362,3.6876693,8.391078,2.1559787
268,1438346165363,2.7856536,4.979341,1.2282255
269,1438346165390,1.0833763,2.4690206,0.61530983
270,1438346165401,-0.054468088,0.25139117,1.09834
271,1438346165422,-0.31483752,-0.57400984,0.90381116
272,1438346165451,-0.19393034,-0.6913257,-0.260968
273,1438346165461,-0.14903906,-0.78410107,-1.240795
274,1438346165481,-0.12030864,-0.6027403,-0.7236475
275,1438346165502,-0.022744916,-0.47105917,-0.13826515
276,1438346165522,-0.17717093,-0.57999533,0.5883751
277,1438346165542,-0.87927055,-1.0229226,1.4466964
278,1438346165561,-0.9068039,-1.0839748,-0.47046062
279,1438346165583,-0.5243302,0.09636662,-0.14724341
280,1438346165605,0.14903906,0.7637503,0.9816227
281,1438346165625,0.31304187,1.822586,3.606865
282,1438346165644,9.6049385,19.608511,2.3720553
283,1438346165665,9.437345,18.423382,0.21667525
284,1438346165685,6.741473,11.690289,-2.3750482
285,1438346165705,5.8143187,18.507778,-5.1002483
286,1438346165725,7.57286,19.608511,0.16160862
287,1438346165742,7.574057,19.608511,14.982914
288,1438346165764,6.250662,19.608511,-3.7720647
289,1438346165785,5.5467668,17.61055,-0.97623575
290,1438346165805,5.825093,13.650541,0.6979098
291,1438346165825,4.68246,9.444528,0.7625532
292,1438346165843,2.666542,6.766014,-0.32680854
293,1438346165865,1.3754689,4.5178585,1.1629834
294,1438346165883,0.15682021,2.235586,1.3970166
295,1438346165902,-1.0779893,0.9876082,0.31364042
296,1438346165970,-0.908001,-0.1400608,0.79607207
297,1438346165971,-0.5686229,-0.664391,0.38486794
298,1438346165972,-0.055066638,-0.5374983,0.09876082
299,1438346165991,0.2124854,-0.36511576,-0.11312603
300,1438346166002,0.35194764,-0.42676646,-0.6015432
301,1438346166022,-0.5081693,-1.3509283,0.95229375
302,1438346166045,-0.6745663,-0.98461545,-0.06943185
303,1438346166062,-0.3453636,-0.43155485,1.46585
304,1438346166082,-0.41060558,0.75118077,2.1787236
305,1438346166105,0.47764325,1.6998832,0.9415198
306,1438346166125,4.3418846,18.152239,-7.482479
307,1438346166146,15.764621,19.608511,14.3897505
308,1438346166162,3.2202013,13.958795,-3.7427359
309,1438346166182,8.489241,19.04767,-1.9434932
310,1438346166205,7.5124063,19.608511,-0.07062895
311,1438346166225,5.0344076,19.608511,1.8920178
312,1438346166245,4.7494974,19.608511,3.8241386
313,1438346166266,4.325125,19.18833,-2.291251
314,1438346166288,3.5625722,14.736312,-0.9163807
315,1438346166305,4.5555673,11.332953,2.44448
316,1438346166326,3.196858,7.1742253,1.7190368
317,1438346166345,1.7064673,4.6016555,-0.6596026
318,1438346166363,1.174356,2.3397336,1.5340848
319,1438346166385,0.073023155,0.56682724,0.95708215
320,1438346166405,-0.5291186,-0.49440265,1.6118963
321,1438346166423,-0.7410054,-1.3186066,1.163582
322,1438346166443,-0.29747957,-1.0420763,0.3238158
323,1438346166463,0.17178397,-0.6919243,-0.52732295
324,1438346166488,0.05566519,-0.74639237,-0.32561144
325,1438346166508,-0.90620536,-1.1228806,0.24959552
326,1438346166528,-1.2940661,-1.2012907,-0.21428105
327,1438346166546,-0.8463503,-0.25079262,1.0366893
328,1438346166563,0.24301147,1.1611878,-0.107739076
329,1438346166583,0.7074866,2.0057425,2.3421278
330,1438346166603,2.842516,7.9511437,-2.4720132
331,1438346166624,11.90457,19.608511,4.015076
332,1438346166642,5.5743003,14.621389,1.9782091
333,1438346166728,8.996812,18.8699,-1.894412
334,1438346166729,7.9206176,19.608511,3.2944214
335,1438346166730,6.3847375,19.608511,5.04578
336,1438346166731,6.2380924,19.608511,1.0480618
337,1438346166746,4.3143516,19.608511,0.6823475
338,1438346166763,3.1848867,18.707693,0.79008657
339,1438346166784,5.1984105,13.87799,0.44891283
340,1438346166803,5.1523223,9.942521,1.246182
341,1438346166823,3.5152867,6.493075,0.6147113
342,1438346166843,1.5376761,3.4237084,0.9068039
343,1438346166863,-0.14185645,1.2449849,1.7106571
344,1438346166883,-1.1390414,0.40581718,2.0189106
345,1438346166903,-1.062427,-0.84335756,0.61411273
346,1438346166923,-0.46088383,-0.8858546,-1.6358383
347,1438346166946,-0.019752163,-0.6548142,-1.4838065
348,1438346166966,0.107739076,-0.50517654,-0.86131406
349,1438346166985,0.24181437,-0.5279215,-0.8295909
350,1438346167007,-0.40880993,-0.82480246,0.57520694
351,1438346167026,-0.8283938,-0.86849666,1.7250223
352,1438346167046,-0.25139117,0.28431144,1.3814543
353,1438346167066,0.789488,1.4323312,0.90859956
354,1438346167083,1.0714053,2.1266496,2.8413188
355,1438346167107,3.5607765,10.691308,8.563461
356,1438346167124,12.269087,19.608511,-6.5008564
357,1438346167146,8.398261,19.094357,8.261193
358,1438346167166,1.8052281,14.690822,-7.709928
359,1438346167188,5.5976434,19.608511,-1.5610195
360,1438346167206,10.193314,19.608511,4.793192
361,1438346167226,3.6230257,19.608511,7.8583684
362,1438346167246,4.7189717,18.840572,-4.3502645
363,1438346167267,3.7140055,14.800955,-3.1040826
364,1438346167286,4.291008,11.194689,1.0672154
365,1438346167308,3.6164417,7.8009076,2.8413188
366,1438346167327,1.1540052,5.1523223,0.1316811
367,1438346167347,0.47225627,2.5025394,1.8441339
368,1438346167365,-0.5201403,0.7380127,2.558803
369,1438346167384,-1.520318,-0.338181,2.3355439
370,1438346167439,-1.067814,-0.88286185,1.5514427
371,1438346167440,-0.12389994,-0.62967503,0.45968673
372,1438346167444,0.53450555,-0.52612585,-0.94930094
373,1438346167466,0.89603,-0.6859388,-0.79607207
374,1438346167484,0.05207389,-0.6841431,0.6691794
375,1438346167508,-0.59256494,-0.830788,0.350152
376,1438346167523,-1.0181342,-1.0702082,0.26755205
377,1438346167543,0.2112883,0.27473465,-0.11731588
378,1438346167569,1.4862007,1.3437457,0.31423897
379,1438346167584,2.825158,2.1894975,-0.6655881
380,1438346167605,10.58297,19.608511,6.5726824
381,1438346167625,3.2573113,14.953586,0.74399817
382,1438346167647,4.7494974,17.513586,-6.6283474
383,1438346167677,5.716755,19.608511,0.15203181
384,1438346167683,5.1996074,19.608511,6.9689226
385,1438346167703,5.8741736,19.608511,4.59986
386,1438346167723,3.3877954,19.608511,0.15023616
387,1438346167743,1.8291701,19.603125,0.91219085
388,1438346167764,3.2638955,15.696985,0.4758476
389,1438346167784,3.752911,11.380837,2.2816741
390,1438346167803,2.9622262,7.778163,1.0833763
391,1438346167824,1.7603368,5.1798553,-0.1364695
392,1438346167847,0.7332243,2.5881321,0.5291186
393,1438346167864,0.065242,3.276465,6.117784
394,1438346167883,-0.078410104,-0.23403321,1.0175357
395,1438346167903,0.39145198,-1.70946,-1.2683283
396,1438346167923,0.2765303,-1.5478514,-0.25498247
397,1438346167943,0.24959552,-1.3054385,0.29628247
398,1438346167963,0.02932897,-0.59017074,0.39743748
399,1438346167983,-0.11611878,-0.2100912,0.38307226
400,1438346168003,-0.31364042,0.108337626,0.3597288
401,1438346168023,-0.18315643,-0.2717419,0.18734628
402,1438346168043,0.24121583,0.23942018,0.34715924
403,1438346168063,0.43754035,1.6178818,2.666542
404,1438346168083,1.9548657,3.7750576,2.8072014
405,1438346168103,5.6138043,19.124884,-0.8607155
406,1438346168123,9.043498,19.608511,-0.050876785
407,1438346168143,2.942474,17.951126,6.628946
408,1438346168163,4.546589,19.608511,0.8038532
409,1438346168183,3.3979707,19.608511,0.061650693
410,1438346168203,1.7968484,19.608511,2.8018146
