id,attr_time,attr_x,attr_y,attr_z
1,1436896020490,-1.055843,9.507974,-0.74399817
2,1436896020509,-1.0702082,9.502586,-0.75716627
3,1436896020530,-1.073201,9.494805,-0.74519527
4,1436896020550,-1.0684125,9.541492,-0.75836337
5,1436896020570,-1.0486604,9.507375,-0.74519527
6,1436896020588,-1.0301052,9.475652,-0.7517793
7,1436896020608,-1.0103531,9.513959,-0.7589619
8,1436896020632,-0.99060094,9.527725,-0.7517793
9,1436896020651,-0.99299514,9.455899,-0.6973112
10,1436896020671,-1.0253168,9.492412,-0.7092823
11,1436896020692,-1.0378864,9.529521,-0.7344214
12,1436896020710,-1.0223241,9.504981,-0.7433996
13,1436896020728,-1.0175357,9.490017,-0.7308301
14,1436896020748,-1.0067618,9.533711,-0.7422025
15,1436896020770,-1.0151415,9.533711,-0.7182605
16,1436896020789,-0.99060094,9.51755,-0.7553706
17,1436896020856,-0.99179804,9.496601,-0.74519527
18,1436896020857,-1.0001777,9.503185,-0.7188591
19,1436896020858,-0.98940384,9.512163,-0.7020996
20,1436896020868,-1.0061632,9.500791,-0.7098808
21,1436896020894,-1.0133458,9.515156,-0.7314286
22,1436896020910,-1.0516531,9.492412,-0.74399817
23,1436896020929,-1.0510546,9.495404,-0.7104794
24,1436896020954,-1.0815806,9.491214,-0.7320272
25,1436896020968,-1.0803835,9.515755,-0.7164649
26,1436896020991,-1.0648212,9.506178,-0.7032967
27,1436896021016,-1.0552444,9.4972,-0.6907272
28,1436896021029,-1.0606314,9.498995,-0.6997054
29,1436896021052,-1.1145009,9.491813,-0.6817489
30,1436896021070,-1.062427,9.521142,-0.7026982
31,1436896021091,-1.0486604,9.455301,-0.7086837
32,1436896021112,-1.0851719,9.475652,-0.6991069
33,1436896021131,-1.0803835,9.51755,-0.6865373
34,1436896021152,-1.0803835,9.504981,-0.682946
35,1436896021170,-1.0253168,9.53012,-0.7284359
36,1436896021191,-1.0085574,9.510367,-0.7212533
37,1436896021212,-1.0199299,9.467272,-0.56802434
38,1436896021231,-1.055843,9.4535055,-0.7835025
39,1436896021252,-1.1216835,9.455899,-0.8762778
40,1436896021270,-1.2108675,9.458893,-0.84694886
41,1436896021291,-1.2737153,9.479243,-0.91219085
42,1436896021315,-1.2270284,9.456498,-0.9427169
43,1436896021331,-1.3018472,9.513959,-0.8523358
44,1436896021352,-1.2497733,9.503185,-0.87567925
45,1436896021369,-1.2551602,9.519346,-0.8984242
46,1436896021389,-1.3533225,9.531317,-0.8762778
47,1436896021408,-1.2826935,9.628283,-0.88166475
48,1436896021435,-1.3449428,9.537302,-0.81043726
49,1436896021455,-1.4251486,9.46009,-0.7068881
50,1436896021471,-1.5496471,9.527725,-0.57520694
51,1436896021490,-1.5658079,9.380483,-0.7278373
52,1436896021519,-1.5825673,9.289502,-0.9056068
53,1436896021530,-1.5221137,9.545682,-1.0253168
54,1436896021598,-1.3706805,9.618107,-1.0666169
55,1436896021599,-1.1043255,9.657013,-0.93972415
56,1436896021600,-0.99898064,9.619903,-0.62847793
57,1436896021609,-0.95468795,9.449914,-0.4213795
58,1436896021640,-0.79128367,9.394848,-0.6135142
59,1436896021649,-0.9576807,9.350554,-0.8319851
60,1436896021669,-1.1378443,9.449316,-0.95109665
61,1436896021690,-1.0618285,9.518747,-0.84216046
62,1436896021709,-1.0815806,9.603143,-0.7906851
63,1436896021733,-1.0271125,9.402629,-0.92057055
64,1436896021755,-0.98102415,9.451111,-1.0857705
65,1436896021770,-1.1246762,9.583989,-1.0582372
66,1436896021789,-0.94690675,9.414001,-1.311424
67,1436896021813,-0.7260417,9.454104,-1.2814964
68,1436896021831,-0.7589619,9.561244,-1.1641805
69,1436896021852,-0.7703344,9.513959,-0.9355343
70,1436896021871,-0.93373865,9.569026,-0.93254155
71,1436896021893,-1.0366893,9.633071,-1.13964
72,1436896021913,-1.2916719,9.611523,-1.228824
73,1436896021932,-1.283292,9.463681,-1.1294646
74,1436896021952,-1.1025299,9.442133,-0.8762778
75,1436896021976,-0.99179804,9.601946,-0.8038532
76,1436896021989,-0.88166475,9.720459,-0.8403648
77,1436896022013,-0.7374141,9.548077,-0.8655039
78,1436896022035,-0.5823896,9.199121,-0.599149
79,1436896022053,-0.49559975,9.065046,-0.47764325
80,1436896022072,-0.56203884,9.160814,-0.20051439
81,1436896022092,-0.37588966,10.004171,-0.38187516
82,1436896022113,-0.27832595,10.478224,-0.5033809
83,1436896022133,-0.18315643,10.581773,-0.30645782
84,1436896022153,1.2348095,11.248558,1.09834
85,1436896022173,1.2012907,10.736199,1.5897499
86,1436896022193,0.4985925,10.21127,2.4061728
87,1436896022213,-0.29149407,10.09994,2.2535424
88,1436896022233,-1.1887212,10.991181,3.4213142
89,1436896022251,-2.815581,9.218874,-1.9021933
90,1436896022324,-1.8842367,7.4310036,1.0486604
91,1436896022325,-1.5927427,5.567716,2.1027076
92,1436896022326,-1.7597382,4.7058034,0.623091
93,1436896022334,-1.6436194,4.665102,0.19692309
94,1436896022353,-2.2092497,3.9965212,-0.037110128
95,1436896022374,-2.106299,4.4753613,0.30945057
96,1436896022389,-1.0175357,5.495291,1.0947487
97,1436896022410,-0.3465607,5.9124813,1.8459295
98,1436896022443,-0.30406362,7.277775,3.9977183
99,1436896022451,-1.0301052,9.592968,7.0066314
100,1436896022471,-0.93134445,13.5296335,5.917868
101,1436896022490,-1.590947,13.7086,0.27832595
102,1436896022515,-2.8616695,12.165538,1.3628993
103,1436896022533,-6.9222355,14.325108,2.9514523
104,1436896022553,-5.73531,15.822082,5.7424927
105,1436896022573,-3.8863878,16.495451,5.109825
106,1436896022593,-2.3828292,19.532495,3.913921
107,1436896022613,-2.1619642,19.608511,2.919729
108,1436896022633,-3.2273839,19.557634,1.678934
109,1436896022653,-4.506486,17.682976,0.7290344
110,1436896022673,-5.9609637,14.820707,-0.25019407
111,1436896022695,-7.731476,10.16578,-1.4766239
112,1436896022712,-1.6142905,6.3548098,-1.1121067
113,1436896022731,1.5676036,4.3287168,-1.3359646
114,1436896022753,2.5127146,2.0458453,-0.8487445
115,1436896022771,1.7513585,-0.45848963,0.1316811
116,1436896022790,1.4826094,-2.3822308,-0.89543146
117,1436896022810,1.6531962,-2.2643163,-0.6476316
118,1436896022833,1.3670892,-2.6461914,0.3716998
119,1436896022853,-0.86370826,-2.5737667,-0.28431144
120,1436896022873,-1.7914615,-0.86131406,-0.55725044
121,1436896022893,-1.3575124,-0.46088383,-0.08738836
122,1436896022910,-0.9911995,0.4417302,-0.25677812
123,1436896022930,-1.4628572,0.016759412,-0.22445641
124,1436896022950,1.816002,2.2296004,-0.53330845
125,1436896022971,1.2779051,5.8346696,1.6956934
126,1436896022991,-3.7858315,19.320011,17.283743
127,1436896023044,0.39624038,19.608511,-6.6229606
128,1436896023047,-15.311519,18.095377,-3.4051533
129,1436896023062,-16.948553,9.741408,7.764396
130,1436896023070,-4.0797195,19.608511,5.1930237
131,1436896023097,-2.4516625,19.608511,1.5999253
132,1436896023111,-5.1768627,19.608511,0.006584055
133,1436896023130,-6.4404025,19.608511,1.4443022
134,1436896023173,-7.0730705,19.330187,2.532467
135,1436896023174,-8.658031,14.388554,-0.24540567
136,1436896023193,-5.0242324,10.089765,-3.1196449
137,1436896023212,-1.9147629,7.295731,-2.0979192
138,1436896023231,-1.3916297,4.052785,-0.110133275
139,1436896023250,-0.1921347,2.0847511,1.2072762
140,1436896023274,1.086369,1.6645688,0.4189853
141,1436896023294,1.027711,0.36990416,0.6745663
142,1436896023315,0.05805939,-1.3221979,-0.10654198
143,1436896023334,0.80325466,-1.2455834,0.073621705
144,1436896023354,0.9576807,-0.9487024,0.3890578
145,1436896023374,0.40581718,-1.5269021,0.52732295
146,1436896023394,-0.45130703,-1.5891514,-0.66379243
147,1436896023414,-0.75237787,-0.9211691,-1.079785
148,1436896023433,-0.79846627,-0.38726214,-0.80924016
149,1436896023452,-0.8996213,-0.11312603,-0.81343
150,1436896023474,-1.3359646,1.7310078,-0.15083471
151,1436896023494,-1.5239093,5.391742,2.463035
152,1436896023514,-3.0945058,19.585768,5.0625396
153,1436896023533,-4.24492,19.608511,-4.754286
154,1436896023554,-14.6998,16.75163,6.9719152
155,1436896023574,-4.747103,19.608511,2.5121162
156,1436896023594,-5.1888337,17.642872,3.6966474
157,1436896023614,-10.758944,19.608511,-7.781754
158,1436896023642,-13.84088,19.608511,7.943961
159,1436896023651,-11.498753,16.895882,7.9906483
160,1436896023671,-6.7600284,13.827113,3.5170822
161,1436896023691,-4.7429137,12.925097,0.10354923
162,1436896023711,-2.9724014,10.679337,-1.1402385
163,1436896023744,-1.3772645,7.9248075,-2.873042
164,1436896023765,-0.83737206,5.5419784,-3.289633
165,1436896023778,0.53211135,4.353257,-1.6765398
166,1436896023791,1.0977415,2.7371712,0.18375498
167,1436896023811,1.2216414,1.0755951,0.9427169
168,1436896023834,1.1641805,-1.0217255,0.8182184
169,1436896023851,0.95349085,-2.3463178,0.25139117
170,1436896023871,-0.30705637,-2.5091233,0.42317516
171,1436896023891,-1.2252327,-1.5053543,0.47524905
172,1436896023911,-0.22924481,-1.7118542,0.29867667
173,1436896023933,-0.062249243,-0.81343,-0.65062433
174,1436896023952,-0.93732995,-0.2172738,-1.4401124
175,1436896023972,-1.3754689,0.035314474,-0.82480246
176,1436896023991,-1.0283096,0.6278794,-0.09876082
177,1436896024014,-1.99437,3.8259344,2.6886885
178,1436896024032,-5.713164,15.875353,2.9269116
179,1436896024054,-2.4654293,19.608511,-2.9071593
180,1436896024074,-13.259089,18.699314,-0.4237737
181,1436896024094,-16.325462,17.559074,4.9781437
182,1436896024114,-5.016451,19.608511,6.0118403
183,1436896024134,-2.9179332,16.712126,2.72939
184,1436896024154,-9.2494,19.425955,-9.543288
185,1436896024175,-15.507843,19.306843,10.523713
186,1436896024192,-9.405622,13.222577,6.667253
187,1436896024215,-8.529344,13.806164,2.0254946
188,1436896024244,-9.36492,13.648147,-1.3275849
189,1436896024255,-5.2810106,9.902418,-3.532046
190,1436896024273,-1.2683283,5.227141,-2.6132712
191,1436896024295,-0.25677812,3.289633,-0.61291564
192,1436896024315,1.5412674,2.2373815,1.1360487
193,1436896024335,2.255338,0.7517793,1.6196774
194,1436896024354,2.2942438,-1.5185224,1.459266
195,1436896024374,2.136825,-2.6994624,0.48602295
196,1436896024395,-0.11971009,-2.698864,0.2717419
197,1436896024414,-1.158195,-2.7234044,0.8643068
198,1436896024434,-1.4155718,-2.9622262,0.58897364
199,1436896024459,-0.94690675,-1.3563153,-0.48482585
200,1436896024533,-0.33518824,-0.18136078,-1.7369933
201,1436896024534,-0.91099375,0.6823475,-2.2385786
202,1436896024535,-1.0366893,1.2000936,-1.929128
203,1436896024536,-3.3973722,3.447052,2.493561
204,1436896024552,-7.8428063,17.164032,1.5269021
205,1436896024574,-11.69388,19.608511,0.59615624
206,1436896024593,-10.766725,12.819155,-2.4570496
207,1436896024617,-8.393473,17.469294,4.9823337
208,1436896024632,-13.4260845,19.608511,3.4183214
209,1436896024683,-7.7386584,19.280506,2.1140802
210,1436896024684,-8.087015,19.608511,-4.993706
211,1436896024719,-13.774441,19.240404,-0.61530983
212,1436896024720,-7.939771,9.279327,13.446435
213,1436896024734,-5.5467668,11.186309,0.7380127
214,1436896024753,-4.76506,8.039729,0.4189853
215,1436896024775,-3.7774518,7.5046253,-1.4694413
216,1436896024795,-3.2303767,5.743091,-2.1266496
217,1436896024815,-1.4413095,4.26946,-2.0290859
218,1436896024835,0.5746084,3.5422213,-0.6721721
219,1436896024855,1.6927006,2.6677392,0.66259533
220,1436896024875,1.4532804,0.8643068,0.33159694
221,1436896024895,1.0031705,-1.3227965,0.55485624
222,1436896024915,1.0133458,-1.6112977,0.7661445
223,1436896024935,0.9187749,-2.0440497,-0.0011971008
224,1436896024956,0.3693056,-1.5077485,0.2813187
225,1436896024976,0.37708676,-1.4580688,-0.6338649
226,1436896024993,-0.7457938,-1.0109516,-1.4341269
227,1436896025015,-1.049259,-0.46866497,-0.4213795
228,1436896025034,-2.3594859,0.57879823,0.9648633
229,1436896025053,-3.448249,5.725135,2.8742392
230,1436896025073,-9.160215,19.608511,-5.125387
231,1436896025098,-19.60911,19.608511,0.17537527
232,1436896025118,-8.940548,16.09502,2.7700913
233,1436896025138,-6.084265,19.608511,1.3150153
234,1436896025155,-2.556409,19.52711,4.0384197
235,1436896025172,-5.218761,19.608511,-11.864467
236,1436896025192,-13.972561,19.608511,7.559692
237,1436896025214,-14.213777,15.466543,7.590218
238,1436896025233,-12.404359,12.282255,2.521693
239,1436896025256,-9.690532,10.247782,-0.07182605
240,1436896025310,-5.810129,8.701726,-1.1294646
241,1436896025323,-2.48159,6.5547256,-2.6503813
242,1436896025324,-0.5967548,4.385579,-3.0472202
243,1436896025332,-0.5386954,2.754529,-1.8483237
244,1436896025354,0.86849666,1.2294226,0.5979519
245,1436896025377,1.797447,0.22385786,1.2384008
246,1436896025393,2.0081367,-1.0582372,1.2743138
247,1436896025414,0.98222125,-1.1785458,0.60453594
248,1436896025435,0.2741361,-0.94451255,1.0307038
249,1436896025454,0.23582886,-0.8511387,0.52073884
250,1436896025473,0.7194576,-0.9032126,-0.05865794
251,1436896025493,0.58119243,-0.22804771,-0.84575176
252,1436896025514,-0.36032736,0.0676362,-1.364695
253,1436896025536,-1.1438298,0.39624038,-1.9440918
254,1436896025556,-1.5065514,1.2306197,-0.7697359
255,1436896025576,-2.697667,3.9228995,0.427365
256,1436896025596,-8.942942,19.173367,5.9627595
257,1436896025616,-19.586964,19.567211,-5.861006
258,1436896025636,-11.531074,9.185355,2.822764
259,1436896025656,-9.270349,19.08478,9.752781
260,1436896025676,-7.9224133,19.57978,2.0769699
261,1436896025696,-6.8893156,11.479,1.513734
262,1436896025717,-10.597335,16.941969,5.024831
263,1436896025733,-12.489952,19.608511,5.109825
264,1436896025756,-14.045585,15.910667,4.0761285
265,1436896025776,-9.71986,13.183073,0.035913024
266,1436896025796,-6.9449806,10.494385,-1.4939818
267,1436896025816,-3.6936548,8.664616,-2.5851393
268,1436896025836,-2.1763294,6.5086374,-2.3546975
269,1436896025856,-0.84814596,4.189853,-0.4165911
270,1436896025876,0.5291186,2.6964695,0.077213004
271,1436896025896,1.3054385,1.4622587,0.16340427
272,1436896025916,1.6118963,0.26874915,0.2717419
273,1436896025936,1.5197195,-1.0115502,-0.0047884034
274,1436896025957,1.0187328,-1.673547,-0.1316811
275,1436896025976,-0.9648633,-1.8381484,0.40102878
276,1436896026000,-1.7860745,-2.0165164,0.85054016
277,1436896026055,-1.8303672,-1.6915035,0.8619126
278,1436896026056,-1.1713632,-1.074398,0.31364042
279,1436896026057,-1.062427,-0.47345337,-0.6775591
280,1436896026082,-0.6356605,0.20171149,-1.264737
281,1436896026094,-0.56203884,1.1587936,-0.089782566
282,1436896026117,-2.5959132,5.6509147,0.11252748
283,1436896026134,-9.626487,19.608511,-1.0666169
284,1436896026154,-19.422962,19.608511,-1.4784195
285,1436896026175,-6.5684924,15.278598,1.4939818
286,1436896026194,-10.967239,19.608511,3.4284968
287,1436896026215,-11.742961,18.300081,2.782661
288,1436896026235,-11.064204,18.641254,-2.1170728
289,1436896026254,-13.152547,18.838177,0.0035913025
290,1436896026273,-10.704475,16.240469,10.271125
291,1436896026295,-8.831013,15.229517,1.2096704
292,1436896026317,-6.1985884,14.076709,-0.06823475
293,1436896026337,-5.5126495,11.045051,-2.0201077
294,1436896026357,-4.8704047,7.465121,-3.086126
295,1436896026377,-3.9145198,4.8961425,-2.415151
296,1436896026395,-2.1254525,2.8389246,-0.7763199
297,1436896026417,-0.7703344,1.7872716,-0.50876784
298,1436896026437,0.8996213,0.801459,0.5835867
299,1436896026457,1.1552023,-0.5351041,0.93852705
300,1436896026474,1.5185224,-1.8369513,0.40880993
301,1436896026494,0.58777654,-1.536479,0.39683893
302,1436896026514,-0.10055647,-1.6573862,0.7398083
303,1436896026535,-0.5650316,-2.504335,0.8295909
304,1436896026554,-0.86011696,-1.9327193,0.51116204
305,1436896026578,-0.95827925,-0.59974754,-0.47046062
306,1436896026598,-0.7433996,0.6063316,-1.3796587
307,1436896026619,-1.365892,1.7842789,0.38307226
308,1436896026637,-3.3614593,6.692991,3.5302503
309,1436896026655,-14.1347685,19.608511,-3.38181
310,1436896026674,-15.916653,19.577986,-2.0536265
311,1436896026693,-4.4873323,10.766127,-2.0248961
312,1436896026715,-9.010578,17.60217,1.7711107
313,1436896026841,-16.290747,17.720684,3.067571
314,1436896026842,-8.396465,16.730083,3.9175124
315,1436896026843,-8.187572,19.598337,1.1336545
316,1436896026844,-9.018958,18.912996,4.642357
317,1436896026845,-5.5964465,12.711415,1.6944963
318,1436896026846,-3.7247794,12.1284275,1.4873978
319,1436896027001,-5.1583076,11.45027,-0.58418524
320,1436896027025,-6.117784,9.279327,-0.94451255
321,1436896027026,-6.0088477,5.6006365,-2.1416135
322,1436896027027,-4.9757495,3.1334114,-3.0142999
323,1436896027028,-2.1350293,2.8778305,-1.5759833
324,1436896027029,-0.43394905,1.5837644,-0.3878607
325,1436896027030,0.46866497,0.7589619,1.2785037
326,1436896027031,1.5460558,-0.5279215,1.4143747
327,1436896027032,1.9782091,-1.4329298,1.1671734
328,1436896027046,0.9756372,-0.64463884,1.0319009
329,1436896027054,0.28191724,-0.30945057,1.2252327
330,1436896027074,-0.27234045,-0.623091,1.3694834
331,1436896027103,-0.80804306,-0.9768343,0.9008184
332,1436896027116,-1.1294646,0.089184016,0.020949265
333,1436896027136,-0.89782566,2.231396,-1.299453
334,1436896027155,-1.7860745,5.325303,-0.28790274
335,1436896027196,-16.564285,19.608511,-3.7337575
336,1436896027197,-15.956158,14.717158,0.2717419
337,1436896027215,-5.0224366,14.972739,2.8060043
338,1436896027234,-5.681441,18.419191,8.779537
339,1436896027253,-6.707356,12.716803,3.25372
340,1436896027273,-7.85358,12.269087,1.834557
341,1436896027293,-9.159617,19.608511,-2.9281087
342,1436896027316,-13.76247,19.575592,-3.8947675
343,1436896027335,-15.091252,16.746244,2.8101943
344,1436896027355,-9.9233675,14.052168,5.0787005
345,1436896027373,-4.571728,10.388441,3.8241386
346,1436896027394,-4.147356,7.405266,0.61291564
347,1436896027413,-3.1705215,4.8279076,-1.7010803
348,1436896027437,-0.08319851,3.0520086,-1.7340006
349,1436896027456,1.1486182,2.3840263,-0.85652566
350,1436896027476,1.5927427,1.1575965,-0.7661445
351,1436896027494,2.088941,0.516549,-0.31064767
352,1436896027517,1.4580688,-0.56682724,-0.64463884
353,1436896027538,0.97503865,-1.6753427,-0.108337626
354,1436896027558,-0.12808979,-2.1745336,-0.42317516
355,1436896027577,-0.7326257,-2.132635,-0.84575176
356,1436896027594,-1.8513165,-1.4706384,-0.3393781
357,1436896027617,-2.171541,-0.30765492,-0.1400608
358,1436896027636,-1.4891934,0.8146271,-0.3854665
359,1436896027658,-1.4682442,2.3511062,1.6825253
360,1436896027675,-8.920795,16.259024,6.31351
361,1436896027696,-18.398842,19.608511,-4.8279076
362,1436896027714,-10.531495,14.334684,-2.6856956
363,1436896027736,-6.155493,13.854048,2.2439656
364,1436896027756,-8.923788,19.608511,7.97748
365,1436896027774,-3.6421793,15.842433,3.2902317
366,1436896027795,-5.0254292,15.201983,0.260968
367,1436896027815,-8.975264,19.573198,-4.611831
368,1436896027835,-12.344504,19.608511,-5.891532
369,1436896027858,-19.60911,17.414227,0.15023616
370,1436896027878,-14.100651,10.579977,4.414908
371,1436896027898,-2.9400797,8.727464,2.8137856
372,1436896027942,-1.3245921,7.591415,0.1448492
373,1436896027943,-0.9528923,5.1966147,-1.6813282
374,1436896027954,0.6123171,3.0107086,-2.1481974
375,1436896027974,1.9165585,1.5173253,-1.4377182
376,1436896027994,1.4496891,0.492607,-0.63087213
377,1436896028014,1.6328455,-0.32920274,-0.16639702
378,1436896028034,2.0410569,-1.0127473,-0.09636662
379,1436896028055,1.2521675,-0.8900445,0.15622166
380,1436896028074,-0.109534726,-0.60932434,0.6218939
381,1436896028095,-0.9552865,-0.664391,0.8391677
382,1436896028115,-1.3006501,-0.5566519,0.56802434
383,1436896028135,-1.5693992,-0.5590461,-0.090979666
384,1436896028157,-1.5460558,0.43873745,-0.51954174
385,1436896028175,-1.1510124,1.5688007,-0.84694886
386,1436896028198,-1.5616181,4.38498,0.5883751
387,1436896028216,-7.367557,19.413982,0.9391256
388,1436896028238,-19.29906,19.608511,-0.16938977
389,1436896028256,-7.545925,14.590265,3.0873232
390,1436896028277,-8.674791,16.95813,6.8222775
391,1436896028297,-7.0347633,14.090475,3.9989154
392,1436896028316,-8.263587,14.17128,2.1571758
393,1436896028375,-10.474034,19.608511,-6.84203
394,1436896028376,-18.828003,19.420567,7.989451
395,1436896028377,-12.580333,14.375385,6.1902084
396,1436896028395,-10.336368,12.538434,1.6394296
397,1436896028416,-8.528745,11.031284,-0.24001873
398,1436896028439,-5.3887496,8.853159,-1.7830818
399,1436896028455,-2.9532478,6.646304,-2.147599
400,1436896028475,0.04070143,4.408324,-0.15442601
401,1436896028498,2.7700913,3.103484,0.09935937
402,1436896028515,3.3554738,1.472434,0.11731588
403,1436896028537,3.2184057,-0.02873042,-0.079008654
404,1436896028557,3.269881,-1.3144168,-0.6404489
405,1436896028576,2.2529438,-1.2551602,-1.7010803
406,1436896028598,0.5734113,-1.0761937,-1.0869676
