id,attr_time,attr_x,attr_y,attr_z
1,1436898151014,-4.435259,8.48984,-0.55006784
2,1436898151033,-4.4448357,8.537724,-0.6871359
3,1436898151053,-4.267066,8.509591,-0.66498953
4,1436898151073,-4.426879,8.51019,-0.61291564
5,1436898151093,-4.394557,8.461109,-0.6159084
6,1436898151110,-4.420295,8.5538845,-0.6147113
7,1436898151136,-4.4304705,8.512584,-0.670975
8,1436898151155,-4.3077674,8.532336,-0.59017074
9,1436898151176,-4.410718,8.541314,-0.61770403
10,1436898151190,-4.422689,8.561666,-0.7230489
11,1436898151212,-4.398747,8.537724,-0.705691
12,1436898151295,-4.372411,8.46051,-0.62009823
13,1436898151296,-4.3526587,8.447941,-0.57640404
14,1436898151297,-4.361038,8.5060005,-0.61530983
15,1436898151298,-4.4418426,8.525752,-0.60453594
16,1436898151310,-4.4394484,8.533533,-0.6919243
17,1436898151336,-4.4274774,8.474875,-0.66618663
18,1436898151350,-4.394557,8.504205,-0.7781156
19,1436898151377,-4.337695,8.487445,-0.62009823
20,1436898151392,-4.329315,8.500613,-0.6087258
21,1436898151412,-4.3400893,8.597578,-0.54767364
22,1436898151431,-4.3400893,8.516774,-0.5243302
23,1436898151451,-4.369418,8.522161,-0.6937199
24,1436898151477,-4.4364557,8.552687,-0.6374562
25,1436898151492,-4.3819876,8.547898,-0.6619968
26,1436898151514,-4.401141,8.453327,-0.6302736
27,1436898151532,-4.401141,8.46051,-0.58538234
28,1436898151553,-4.4059296,8.459313,-0.6206968
29,1436898151574,-4.4005427,8.531139,-0.6697779
30,1436898151594,-4.3317094,8.573038,-0.6584055
31,1436898151614,-4.405331,8.558673,-0.5847838
32,1436898151630,-4.3993454,8.550293,-0.7356185
33,1436898151656,-4.3568487,8.488642,-0.6745663
34,1436898151672,-4.3448777,8.456321,-0.6171055
35,1436898151694,-4.402937,8.461109,-0.6135142
36,1436898151710,-4.4143095,8.514978,-0.61770403
37,1436898151734,-4.4143095,8.556278,-0.65900403
38,1436898151753,-4.371214,8.580819,-0.6889315
39,1436898151775,-4.3502645,8.510789,-0.58538234
40,1436898151798,-4.371214,8.509591,-0.6326678
41,1436898151817,-4.336498,8.494029,-0.6242881
42,1436898151835,-4.357447,8.484452,-0.6404489
43,1436898151852,-4.437054,8.485051,-0.6727707
44,1436898151871,-4.4322658,8.554482,-0.6703765
45,1436898151893,-4.4035354,8.51857,-0.6398504
46,1436898151914,-4.326921,8.507197,-0.6679823
47,1436898151931,-4.348469,8.47727,-0.664391
48,1436898151996,-4.3580456,8.519767,-0.6512229
49,1436898151997,-4.3544545,8.549694,-0.6422446
50,1436898151998,-4.378995,8.605958,-0.6314707
51,1436898152011,-4.358644,8.470087,-0.57760113
52,1436898152034,-4.3598413,8.435969,-0.623091
53,1436898152082,-4.405331,8.511986,-0.60932434
54,1436898152083,-4.3819876,8.536526,-0.6206968
55,1436898152123,-4.382586,8.613739,-0.66618663
56,1436898152124,-4.3688197,8.525752,-0.7044938
57,1436898152151,-4.3879733,8.471284,-0.6697779
58,1436898152155,-4.3879733,8.470087,-0.5770026
59,1436898152173,-4.3939586,8.533533,-0.6075287
60,1436898152191,-4.3143516,8.501212,-0.7314286
61,1436898152214,-4.2945995,8.474875,-0.7356185
62,1436898152250,-4.395156,8.5778265,-0.7290344
63,1436898152251,-4.3358994,8.566454,-0.6548142
64,1436898152285,-4.3089647,8.532935,-0.5907693
65,1436898152291,-4.321534,8.487445,-0.61112
66,1436898152311,-4.395156,8.496424,-0.64583594
67,1436898152331,-4.36044,8.54311,-0.7110779
68,1436898152352,-4.3035774,8.587403,-0.6655881
69,1436898152371,-4.3047748,8.594585,-0.599149
70,1436898152391,-4.3341036,8.616134,-0.52971715
71,1436898152411,-4.2556934,8.60117,-0.5805939
72,1436898152431,-4.2742486,8.555081,-0.5614403
73,1436898152451,-4.286818,8.539519,-0.6087258
74,1436898152471,-4.220379,8.520366,-0.6733692
75,1436898152491,-4.3580456,8.492832,-0.6015432
76,1436898152511,-4.2700586,8.556877,-0.65780693
77,1436898152531,-4.2999864,8.546701,-0.6536171
78,1436898152551,-4.3837833,8.5622635,-0.6386533
79,1436898152577,-4.348469,8.5143795,-0.682946
80,1436898152597,-4.446631,8.503606,-0.65182143
81,1436898152615,-4.4161053,8.467094,-0.6572084
82,1436898152680,-4.3460746,8.452729,-0.7044938
83,1436898152681,-4.3795934,8.480861,-0.7344214
84,1436898152682,-4.4298716,8.48984,-0.7469909
85,1436898152692,-4.482544,8.505402,-0.688333
86,1436898152710,-4.465186,8.559271,-0.66020113
87,1436898152730,-4.4005427,8.541913,-0.6913257
88,1436898152752,-4.3047748,8.4587145,-0.7529764
89,1436898152772,-4.4304705,8.484452,-0.712275
90,1436898152792,-4.4382515,8.491036,-0.7356185
91,1436898152812,-4.361637,8.470087,-0.7410054
92,1436898152835,-4.4873323,8.473679,-0.7715315
93,1436898152855,-4.5262384,8.434174,-0.8194155
94,1436898152874,-4.6297874,8.38629,-0.7697359
95,1436898152890,-4.619612,8.43178,-0.7787141
96,1436898152915,-4.5166616,8.44016,-0.7673417
97,1436898152935,-4.531027,8.436568,-0.8702923
98,1436898152955,-4.554969,8.388684,-0.8265981
99,1436898152973,-4.5872903,8.467693,-0.7846996
100,1436898152994,-4.4759603,8.526351,-0.8583213
101,1436898153015,-4.4179006,8.48146,-0.85473
102,1436898153032,-4.4580035,8.470087,-0.866701
103,1436898153055,-4.4897265,8.4425535,-0.87328506
104,1436898153074,-4.485537,8.465299,-0.8762778
105,1436898153093,-4.431069,8.432379,-0.84575176
106,1436898153115,-4.4514194,8.428787,-0.81881696
107,1436898153134,-4.495114,8.413823,-0.78529817
108,1436898153156,-4.589086,8.484452,-0.7553706
109,1436898153179,-4.6058455,8.48984,-0.7625532
110,1436898153192,-4.501099,8.404246,-0.8319851
111,1436898153213,-4.509479,8.410232,-0.84216046
112,1436898153232,-4.5441947,8.411429,-0.8038532
113,1436898153254,-4.505289,8.50181,-0.7128736
114,1436898153273,-4.4460325,8.50181,-0.74639237
115,1436898153293,-4.4340615,8.469488,-0.78888947
116,1436898153313,-4.4873323,8.498817,-0.7799112
117,1436898153393,-4.39755,8.415619,-0.81163436
118,1436898153394,-4.422689,8.424597,-0.78769237
119,1436898153395,-4.4843397,8.465299,-0.7613561
120,1436898153396,-4.481347,8.491036,-0.7763199
121,1436898153414,-4.478953,8.488044,-0.80684596
122,1436898153435,-4.502895,8.49343,-0.7763199
123,1436898153452,-4.4597993,8.500613,-0.75716627
124,1436898153477,-4.3861775,8.451532,-0.7493851
125,1436898153493,-4.3993454,8.432379,-0.75596917
126,1436898153513,-4.382586,8.463503,-0.7661445
127,1436898153535,-4.4298716,8.492832,-0.7733272
128,1436898153554,-4.473566,8.484452,-0.7565677
129,1436898153578,-4.446631,8.475474,-0.736217
130,1436898153596,-4.426879,8.46051,-0.7266402
131,1436898153615,-4.4795513,8.5060005,-0.7038953
132,1436898153636,-4.450821,8.501212,-0.7140707
133,1436898153655,-4.414908,8.454525,-0.7505822
134,1436898153676,-4.4101195,8.488642,-0.7685388
135,1436898153696,-4.4316673,8.467693,-0.7882909
136,1436898153715,-4.4424415,8.435969,-0.7751228
137,1436898153736,-4.5364137,8.459313,-0.6853402
138,1436898153756,-4.5256395,8.436568,-0.6979098
139,1436898153774,-4.484938,8.435969,-0.7422025
140,1436898153795,-4.546589,8.463503,-0.81402856
141,1436898153816,-4.5938745,8.528147,-0.81402856
142,1436898153834,-4.4514194,8.384495,-0.8110358
143,1436898153854,-4.4184995,8.417415,-0.7685388
144,1436898153874,-4.526837,8.523358,-0.6901286
145,1436898153892,-4.349067,8.595184,-0.6967127
146,1436898153919,-4.201824,8.593389,-0.7589619
147,1436898153939,-4.3700166,8.488642,-0.75596917
148,1436898153956,-4.4244847,8.455123,-0.7236475
149,1436898153974,-4.5016975,8.59279,-0.60932434
150,1436898153994,-4.570531,8.495825,-0.6206968
151,1436898154015,-4.51726,8.344392,-0.670975
152,1436898154035,-4.589086,8.418014,-0.6799533
153,1436898154054,-4.546589,8.495226,-0.7392098
154,1436898154198,-4.5435963,8.634688,-0.75836337
155,1436898154199,-4.4999022,8.569447,-0.7152678
156,1436898154200,-4.386776,8.310274,-0.6344634
157,1436898154201,-4.4717703,8.294113,-0.6302736
158,1436898154202,-4.514866,8.393473,-0.80684596
159,1436898154203,-4.534618,8.5622635,-1.0181342
160,1436898154204,-4.4484267,8.528745,-1.2144588
161,1436898154401,-4.2610803,8.31207,-1.2348095
162,1436898154402,-4.3795934,8.233061,-1.0462662
163,1436898154403,-4.470573,8.227076,-0.8900445
164,1436898154404,-4.461595,8.393473,-0.93014735
165,1436898154405,-4.559757,8.482059,-1.1378443
166,1436898154406,-4.4897265,8.358158,-1.2755109
167,1436898154407,-4.4023385,8.3821,-1.2599486
168,1436898154408,-4.307169,8.44375,-1.1599907
169,1436898154409,-4.392163,8.428188,-1.0193313
170,1436898154410,-4.583101,8.429385,-0.95349085
171,1436898154427,-4.8189297,8.48984,-0.97862995
172,1436898154434,-4.968567,8.455722,-1.0462662
173,1436898154453,-4.9745526,8.35337,-1.2060791
174,1436898154473,-4.9667716,8.405443,-1.2258313
175,1436898154493,-4.8745947,8.516175,-1.0995371
176,1436898154514,-4.583699,8.388085,-0.9475053
177,1436898154534,-4.2730513,8.305486,-0.92895025
178,1436898154556,-4.203021,8.544906,-0.85413146
179,1436898154574,-4.1401734,8.785523,-0.87328506
180,1436898154595,-3.899556,8.761581,-0.8690952
181,1436898154616,-3.6529531,8.68796,-0.7146692
182,1436898154634,-3.4488475,8.593987,-0.5770026
183,1436898154653,-3.4488475,8.841787,-0.42317516
184,1436898154678,-3.490746,9.309854,-0.427365
185,1436898154694,-3.5230677,8.938153,-0.85054016
186,1436898154717,-3.7882257,8.446744,-0.97743285
187,1436898154732,-4.1240125,8.494628,-0.86969376
188,1436898154753,-4.2221746,8.495226,-0.7799112
189,1436898154773,-4.3143516,8.555679,-0.7140707
190,1436898154794,-4.3305125,8.527548,-0.6003461
191,1436898154812,-4.361637,8.5862055,-0.56922144
192,1436898154833,-4.446631,8.677185,-0.45370123
193,1436898154854,-4.437054,8.836999,-0.39384618
194,1436898154873,-4.3155484,8.737639,-0.45010993
195,1436898154893,-4.247314,8.592192,-0.6338649
196,1436898154915,-4.301183,8.568848,-0.65242
197,1436898154933,-4.270657,8.497621,-0.65301853
198,1436898154953,-4.187459,8.738237,-0.6572084
199,1436898154973,-3.989937,8.820239,-0.7128736
200,1436898154993,-3.6768951,8.701127,-0.6560113
201,1436898155013,-3.484162,8.848969,-0.55006784
202,1436898155035,-3.4727895,8.95611,-0.5363012
203,1436898155055,-3.5488055,8.796297,-0.65062433
204,1436898155075,-3.7870286,8.681973,-0.7032967
205,1436898155094,-3.8163576,8.637083,-0.6344634
206,1436898155117,-3.7822402,8.783728,-0.53929394
207,1436898155137,-3.620033,8.787319,-0.42197806
208,1436898155157,-3.6032736,8.783129,-0.51355624
209,1436898155173,-3.98874,8.850765,-0.80684596
210,1436898155198,-4.44723,8.579621,-1.0109516
211,1436898155217,-4.6178164,8.337808,-1.1683705
212,1436898155238,-4.5872903,8.19236,-1.0690111
213,1436898155284,-4.5364137,8.361151,-0.7254431
214,1436898155285,-4.435259,8.456919,-0.45130703
215,1436898155298,-4.453215,8.488642,-0.31004912
216,1436898155318,-4.6016555,8.55149,-0.28790274
217,1436898155333,-4.6363716,8.773552,-0.3196259
218,1436898155358,-4.4328647,8.932767,-0.35553896
219,1436898155376,-4.0497923,8.767567,-0.4441244
220,1436898155396,-3.980959,8.585608,-0.4770447
221,1436898155416,-3.9223008,8.6496525,-0.50278234
222,1436898155438,-3.9396589,8.4826565,-0.7445967
223,1436898155458,-4.3460746,8.46889,-0.81343
224,1436898155478,-4.455011,8.489241,-0.90261406
225,1436898155498,-4.5543704,8.425196,-0.96067345
226,1436898155516,-4.758476,8.492233,-0.88286185
227,1436898155536,-4.7022123,8.613141,-0.7697359
228,1436898155556,-4.445434,8.66282,-0.74758947
229,1436898155575,-4.2419267,8.643068,-0.86011696
230,1436898155595,-4.050989,8.461109,-1.0223241
231,1436898155630,-3.9749734,8.377312,-1.0217255
232,1436898155634,-4.0533834,8.485649,-0.88645315
233,1436898155654,-4.1557355,8.661025,-0.7823054
234,1436898155674,-4.203021,8.663419,-0.65780693
235,1436898155695,-4.3275194,8.555081,-0.66738373
236,1436898155717,-4.6034513,8.520366,-0.6937199
237,1436898155738,-4.731541,8.44016,-0.6859388
238,1436898155754,-4.670489,8.492832,-0.6907272
239,1436898155777,-4.550779,8.478467,-0.61112
240,1436898155799,-4.317344,8.524555,-0.5243302
241,1436898155815,-4.087501,8.632893,-0.5566519
242,1436898155838,-4.096479,8.7125,-0.5943606
243,1436898155856,-4.0360255,8.683769,-0.670975
244,1436898155878,-4.048595,8.548497,-0.7110779
245,1436898155898,-4.2060137,8.504205,-0.7044938
246,1436898155918,-4.177882,8.564658,-0.717662
247,1436898155938,-4.192846,8.520366,-0.6775591
248,1436898155956,-4.289212,8.627506,-0.6727707
249,1436898155978,-4.2024226,8.53054,-0.6967127
250,1436898155998,-4.274847,8.4826565,-0.7009025
251,1436898156018,-4.405331,8.48146,-0.7428011
252,1436898156035,-4.4167037,8.456919,-0.79128367
253,1436898156058,-4.5340195,8.547898,-0.741604
254,1436898156077,-4.5262384,8.574235,-0.7038953
255,1436898156097,-4.3819876,8.474875,-0.6171055
256,1436898156117,-4.4621935,8.500613,-0.53211135
257,1436898156137,-4.4179006,8.583213,-0.4902128
258,1436898156159,-4.2580876,8.58022,-0.46028528
259,1436898156179,-4.233547,8.5778265,-0.57400984
260,1436898156199,-4.201824,8.550891,-0.7068881
261,1436898156218,-4.291008,8.565256,-0.8295909
262,1436898156238,-4.2610803,8.535928,-0.9391256
263,1436898156255,-4.2161894,8.455722,-0.8984242
264,1436898156277,-4.2945995,8.57184,-0.7685388
265,1436898156296,-4.261679,8.571242,-0.6488287
266,1436898156316,-4.1611223,8.508394,-0.59974754
267,1436898156369,-4.337096,8.596381,-0.56084174
268,1436898156370,-4.4184995,8.628703,-0.5823896
269,1436898156378,-4.3221326,8.517372,-0.66618663
270,1436898156395,-4.4125137,8.426393,-0.7350199
271,1436898156415,-4.4699745,8.459911,-0.7577648
272,1436898156436,-4.449025,8.504803,-0.78769237
273,1436898156455,-4.361038,8.477868,-0.7685388
274,1436898156479,-4.2904096,8.376115,-0.79128367
275,1436898156495,-4.478953,8.459911,-0.7350199
276,1436898156516,-4.6495395,8.517372,-0.6973112
277,1436898156536,-4.5872903,8.513782,-0.66858083
278,1436898156557,-4.5723267,8.537724,-0.7200562
279,1436898156577,-4.429273,8.500014,-0.7236475
280,1436898156599,-4.3143516,8.444948,-0.7009025
281,1436898156619,-4.296395,8.517971,-0.6488287
282,1436898156638,-4.3077674,8.603564,-0.6697779
283,1436898156658,-4.261679,8.487445,-0.7074866
284,1436898156676,-4.2622776,8.512584,-0.7727286
285,1436898156699,-4.3185415,8.475474,-0.7577648
286,1436898156719,-4.341286,8.540716,-0.74639237
287,1436898156739,-4.2778397,8.583213,-0.717662
288,1436898156758,-4.2922053,8.561067,-0.6961141
289,1436898156777,-4.308366,8.558074,-0.64583594
290,1436898156799,-4.3101616,8.564658,-0.60453594
291,1436898156819,-4.2945995,8.567651,-0.60573304
292,1436898156838,-4.2060137,8.525752,-0.61052144
293,1436898156859,-4.283227,8.564059,-0.63087213
294,1436898156876,-4.3885717,8.582615,-0.641646
295,1436898156897,-4.3658266,8.459911,-0.6452374
296,1436898156917,-4.3837833,8.457518,-0.6344634
297,1436898156937,-4.3957543,8.50181,-0.62728083
298,1436898156959,-4.3766007,8.5886,-0.63206923
299,1436898156978,-4.2945995,8.59698,-0.6434417
300,1436898156998,-4.24492,8.564059,-0.65541273
301,1436898157017,-4.2263646,8.552687,-0.62847793
302,1436898157046,-4.249708,8.55987,-0.57400984
303,1436898157112,-4.2898107,8.577228,-0.5781997
304,1436898157114,-4.333505,8.531737,-0.61171854
305,1436898157115,-4.280833,8.528745,-0.6715736
306,1436898157116,-4.325724,8.555081,-0.7344214
307,1436898157136,-4.3448777,8.540117,-0.7140707
308,1436898157156,-4.3478703,8.536526,-0.7044938
309,1436898157176,-4.3664255,8.521563,-0.6919243
310,1436898157197,-4.3538556,8.548497,-0.6500258
311,1436898157218,-4.317344,8.558673,-0.66618663
312,1436898157262,-4.268862,8.550891,-0.65062433
313,1436898157263,-4.320337,8.570643,-0.6356605
314,1436898157277,-4.3239284,8.535329,-0.64703304
315,1436898157298,-4.286818,8.49343,-0.664391
316,1436898157316,-4.32333,8.543709,-0.6817489
317,1436898157336,-4.370615,8.544906,-0.7098808
318,1436898157356,-4.359243,8.578424,-0.7074866
319,1436898157378,-4.378995,8.544308,-0.6805518
320,1436898157399,-4.326921,8.494029,-0.670975
321,1436898157416,-4.283227,8.461109,-0.66738373
322,1436898157436,-4.405331,8.519767,-0.66139823
323,1436898157456,-4.3981485,8.552687,-0.65900403
324,1436898157476,-4.3766007,8.537724,-0.63087213
325,1436898157496,-4.3957543,8.546701,-0.6332663
326,1436898157516,-4.3155484,8.502409,-0.64463884
327,1436898157536,-4.261679,8.531139,-0.65421563
328,1436898157556,-4.3101616,8.619126,-0.66738373
329,1436898157576,-4.3047748,8.622718,-0.6775591
330,1436898157597,-4.2658687,8.419808,-0.6793547
331,1436898157619,-4.326921,8.471883,-0.6859388
332,1436898157638,-4.361637,8.584411,-0.5895722
333,1436898157659,-4.312556,8.641273,-0.64823014
334,1436898157679,-4.335301,8.576629,-0.6961141
335,1436898157698,-4.346673,8.471284,-0.7374141
336,1436898157718,-4.3795934,8.5060005,-0.6937199
337,1436898157741,-4.317344,8.552687,-0.6075287
338,1436898157758,-4.185663,8.561666,-0.599149
339,1436898157780,-4.225766,8.574235,-0.60453594
340,1436898157852,-4.335301,8.589199,-0.664391
341,1436898157858,-4.373009,8.532336,-0.6853402
342,1436898157859,-4.380192,8.51019,-0.66498953
343,1436898157860,-4.370615,8.528147,-0.65242
344,1436898157878,-4.2491093,8.531139,-0.64942724
345,1436898157900,-4.2521024,8.555679,-0.6332663
346,1436898157916,-4.3478703,8.576629,-0.6344634
347,1436898157937,-4.3059716,8.583213,-0.6254852
348,1436898157958,-4.2622776,8.539519,-0.6512229
349,1436898157979,-4.2437224,8.549694,-0.65660983
350,1436898157998,-4.2700586,8.574235,-0.6314707
351,1436898158018,-4.2754455,8.505402,-0.62249243
352,1436898158038,-4.3089647,8.545505,-0.6434417
353,1436898158060,-4.3143516,8.562862,-0.65541273
354,1436898158080,-4.325724,8.531737,-0.6733692
355,1436898158100,-4.3502645,8.567651,-0.65660983
356,1436898158117,-4.3538556,8.602366,-0.59974754
357,1436898158138,-4.2796354,8.55987,-0.6476316
358,1436898158160,-4.272453,8.469488,-0.65421563
359,1436898158180,-4.3197384,8.501212,-0.6476316
360,1436898158200,-4.341286,8.529344,-0.6410475
361,1436898158217,-4.348469,8.563461,-0.6410475
362,1436898158239,-4.336498,8.602965,-0.6560113
363,1436898158257,-4.3059716,8.537125,-0.7182605
364,1436898158278,-4.301183,8.548497,-0.6835446
365,1436898158300,-4.256891,8.574833,-0.6715736
366,1436898158318,-4.2012253,8.546701,-0.6476316
367,1436898158338,-4.2634745,8.610147,-0.56323594
368,1436898158360,-4.223372,8.579023,-0.5979519
369,1436898158380,-4.297592,8.559271,-0.6619968
370,1436898158400,-4.325125,8.565855,-0.65660983
371,1436898158418,-4.2838254,8.57184,-0.65660983
372,1436898158439,-4.312556,8.564658,-0.62847793
373,1436898158461,-4.3299136,8.653243,-0.61411273
374,1436898158480,-4.222773,8.577228,-0.62728083
375,1436898158498,-4.2820296,8.51019,-0.6338649
376,1436898158523,-4.3197384,8.486248,-0.6278794
377,1436898158590,-4.337096,8.458116,-0.5758055
378,1436898158591,-4.373608,8.514978,-0.62249243
379,1436898158592,-4.3783965,8.489241,-0.7278373
380,1436898158599,-4.466982,8.463503,-0.7344214
381,1436898158620,-4.4077253,8.446145,-0.6925228
382,1436898158645,-4.2957964,8.418612,-0.64583594
383,1436898158657,-4.291008,8.357559,-0.64823014
384,1436898158678,-4.247314,8.348581,-0.5267244
385,1436898158698,-4.289212,8.531737,-0.59376204
386,1436898158722,-4.2060137,8.719084,-0.6392518
387,1436898158739,-4.0533834,8.583213,-0.76075757
388,1436898158758,-4.220379,8.548497,-0.6739678
389,1436898158778,-4.324527,8.524555,-0.60453594
390,1436898158798,-4.1796775,8.55987,-0.6691794
391,1436898158823,-4.1515455,8.524555,-0.599149
392,1436898158838,-4.19105,8.645462,-0.65242
393,1436898158860,-4.074931,8.701726,-0.736217
394,1436898158881,-4.1024647,8.630499,-0.7248446
395,1436898158901,-4.247314,8.702325,-0.58897364
396,1436898158921,-4.0815153,8.776545,-0.44891283
397,1436898158937,-3.912724,8.7849245,-0.29029694
398,1436898158959,-3.7936125,8.603564,-0.24779987
399,1436898158979,-3.4368765,8.421604,-0.48243165
400,1436898159000,-3.6218286,8.342596,-0.6314707
401,1436898159021,-4.0815153,8.618527,-0.6464345
402,1436898159038,-4.0120835,8.690952,-0.85473
403,1436898159060,-4.051588,8.558673,-0.7811083
404,1436898159079,-4.1677065,8.215703,-0.5781997
405,1436898159100,-4.685453,8.310873,-0.39384618
406,1436898159120,-5.267244,8.699332,-0.13706805
407,1436898159140,-5.45878,8.527548,-0.5374983
408,1436898159159,-6.0836663,8.178593,-0.6500258
409,1436898159180,-7.107786,8.158242,-0.5554548
410,1436898159198,-6.6145806,8.1797905,-0.6781576
411,1436898159219,-5.5521536,8.363545,-0.7517793
412,1436898159238,-4.7937903,8.548497,-1.0809821
