id,attr_time,attr_x,attr_y,attr_z
1,1436894934818,-1.6705543,9.422979,-0.7140707
2,1436894934842,-1.6711528,9.417592,-0.7009025
3,1436894934858,-1.7292122,9.415796,-0.7110779
4,1436894934877,-1.7286136,9.408614,-0.6937199
5,1436894934898,-1.7016789,9.392453,-0.7074866
6,1436894934917,-1.6915035,9.408015,-0.7290344
7,1436894934938,-1.6747441,9.434352,-0.7015011
8,1436894934963,-1.6980876,9.403826,-0.6895301
9,1436894934978,-1.7004818,9.3822775,-0.6739678
10,1436894934999,-1.6777369,9.400234,-0.7026982
11,1436894935020,-1.7130513,9.443929,-0.700304
12,1436894935037,-1.6771383,9.431957,-0.7026982
13,1436894935058,-1.7118542,9.409213,-0.7260417
14,1436894935085,-1.7244238,9.363124,-0.7068881
15,1436894935120,-1.6986861,9.405622,-0.6925228
16,1436894935121,-1.7088615,9.411607,-0.6967127
17,1436894935137,-1.6525977,9.433155,-0.694917
18,1436894935160,-1.6867151,9.416395,-0.7212533
19,1436894935177,-1.726818,9.428965,-0.7104794
20,1436894935199,-1.7244238,9.423578,-0.6955156
21,1436894935218,-1.7190368,9.395446,-0.6733692
22,1436894935239,-1.6950948,9.413403,-0.6787562
23,1436894935259,-1.6927006,9.388862,-0.7009025
24,1436894935282,-1.7298107,9.398438,-0.6943185
25,1436894935299,-1.6861166,9.405023,-0.6973112
26,1436894935319,-1.6693572,9.403227,-0.7080852
27,1436894935339,-1.6723499,9.416395,-0.7032967
28,1436894935361,-1.685518,9.426571,-0.70509243
29,1436894935382,-1.7351977,9.428367,-0.6895301
30,1436894935401,-1.7441759,9.403826,-0.6452374
31,1436894935421,-1.7166426,9.411607,-0.66259533
32,1436894935439,-1.6645688,9.407417,-0.7098808
33,1436894935461,-1.6915035,9.405622,-0.7308301
34,1436894935481,-1.6831238,9.400234,-0.7194576
35,1436894935503,-1.6879122,9.424176,-0.6697779
36,1436894935521,-1.6687586,9.466674,-0.6865373
37,1436894935541,-1.6370354,9.399636,-0.6955156
38,1436894935559,-1.6729485,9.361927,-0.7092823
39,1436894935582,-1.7184383,9.399636,-0.6805518
40,1436894935604,-1.7477672,9.415198,-0.64463884
41,1436894935622,-1.7262194,9.431957,-0.6619968
42,1436894935642,-1.7208325,9.427169,-0.7218518
43,1436894935663,-1.6903064,9.436746,-0.7374141
44,1436894935681,-1.6346412,9.433155,-0.7284359
45,1436894935701,-1.6142905,9.405622,-0.7284359
46,1436894935721,-1.6089035,9.418191,-0.6919243
47,1436894935749,-1.6406267,9.425972,-0.682946
48,1436894935805,-1.7076644,9.415198,-0.66259533
49,1436894935807,-1.7238252,9.42238,-0.688333
50,1436894935808,-1.7010803,9.420585,-0.7098808
51,1436894935825,-1.6873137,9.4217825,-0.7140707
52,1436894935840,-1.6525977,9.417592,-0.6979098
53,1436894935859,-1.6765398,9.436746,-0.682946
54,1436894935879,-1.6915035,9.411008,-0.6889315
55,1436894935899,-1.7178397,9.402629,-0.6703765
56,1436894935920,-1.6843209,9.415198,-0.6715736
57,1436894935941,-1.6705543,9.43076,-0.6853402
58,1436894935960,-1.6915035,9.405622,-0.6907272
59,1436894935985,-1.6657659,9.3978405,-0.670975
60,1436894936002,-1.6699557,9.416994,-0.6679823
61,1436894936022,-1.6478093,9.464878,-0.7080852
62,1436894936048,-1.6280571,9.436746,-0.7332243
63,1436894936062,-1.6298528,9.375095,-0.712275
64,1436894936083,-1.6687586,9.406818,-0.6865373
65,1436894936101,-1.7244238,9.424176,-0.65242
66,1436894936121,-1.6849195,9.411607,-0.6715736
67,1436894936141,-1.6980876,9.417592,-0.7230489
68,1436894936163,-1.6603789,9.448118,-0.7284359
69,1436894936183,-1.6585833,9.414599,-0.7182605
70,1436894936203,-1.6334441,9.449316,-0.7110779
71,1436894936222,-1.620276,9.408614,-0.6907272
72,1436894936242,-1.6382325,9.413403,-0.664391
73,1436894936264,-1.6693572,9.4217825,-0.688333
74,1436894936284,-1.6962919,9.399037,-0.6961141
75,1436894936304,-1.7052702,9.405023,-0.7110779
76,1436894936323,-1.6962919,9.427169,-0.7104794
77,1436894936340,-1.6675615,9.430161,-0.6739678
78,1436894936360,-1.6531962,9.415796,-0.6745663
79,1436894936380,-1.6484078,9.389461,-0.682946
80,1436894936405,-1.6400281,9.419388,-0.7164649
81,1436894936426,-1.6496049,9.433155,-0.6973112
82,1436894936445,-1.6525977,9.4217825,-0.6715736
83,1436894936464,-1.6573862,9.405023,-0.6793547
84,1436894936483,-1.6621746,9.4295635,-0.65242
85,1436894936560,-1.6340426,9.4535055,-0.6943185
86,1436894936561,-1.6172832,9.351752,-0.7152678
87,1436894936562,-1.6298528,9.40203,-0.682946
88,1436894936563,-1.6705543,9.4217825,-0.6931214
89,1436894936580,-1.7280151,9.408614,-0.6440403
90,1436894936602,-1.6837224,9.425373,-0.6739678
91,1436894936620,-1.6394296,9.422979,-0.7469909
92,1436894936640,-1.6376339,9.437345,-0.7368156
93,1436894936664,-1.6328455,9.408614,-0.6967127
94,1436894936681,-1.6130934,9.4295635,-0.6434417
95,1436894936701,-1.6226702,9.431359,-0.6362591
96,1436894936720,-1.654992,9.407417,-0.6943185
97,1436894936745,-1.6741456,9.419987,-0.6769605
98,1436894936764,-1.6849195,9.4457245,-0.6901286
99,1436894936783,-1.6633717,9.414599,-0.6955156
100,1436894936803,-1.661576,9.404425,-0.7098808
101,1436894936822,-1.6783354,9.424775,-0.6877344
102,1436894936843,-1.6663644,9.412206,-0.6823475
103,1436894936863,-1.6657659,9.416994,-0.6368576
104,1436894936883,-1.6747441,9.414001,-0.62847793
105,1436894936903,-1.6597804,9.414001,-0.6607997
106,1436894936922,-1.6406267,9.416395,-0.6907272
107,1436894936941,-1.596334,9.411607,-0.7080852
108,1436894936963,-1.6358383,9.436746,-0.6775591
109,1436894936986,-1.6460136,9.461287,-0.688333
110,1436894937002,-1.6310499,9.397242,-0.6793547
111,1436894937020,-1.6609775,9.369708,-0.6733692
112,1436894937047,-1.6633717,9.412804,-0.6913257
113,1436894937067,-1.685518,9.387665,-0.6452374
114,1436894937087,-1.6819267,9.416994,-0.65900403
115,1436894937105,-1.7106571,9.458294,-0.6739678
116,1436894937123,-1.6699557,9.431957,-0.6667852
117,1436894937141,-1.6178818,9.42238,-0.7356185
118,1436894937160,-1.6346412,9.426571,-0.7086837
119,1436894937180,-1.6400281,9.43495,-0.641646
120,1436894937204,-1.6101006,9.4295635,-0.62608373
121,1436894937221,-1.6244658,9.41041,-0.6344634
122,1436894937293,-1.6112977,9.417592,-0.688333
123,1436894937294,-1.6142905,9.435549,-0.7230489
124,1436894937295,-1.666963,9.419388,-0.7212533
125,1436894937306,-1.6747441,9.426571,-0.6733692
126,1436894937329,-1.6903064,9.401431,-0.6572084
127,1436894937341,-1.6903064,9.440936,-0.65780693
128,1436894937361,-1.6663644,9.408614,-0.66259533
129,1436894937383,-1.6879122,9.409811,-0.6757634
130,1436894937402,-1.6885108,9.43076,-0.6799533
131,1436894937422,-1.644218,9.43076,-0.6937199
132,1436894937441,-1.6555905,9.449316,-0.6985083
133,1436894937463,-1.644218,9.439739,-0.6895301
134,1436894937481,-1.6448165,9.370906,-0.6715736
135,1436894937504,-1.6729485,9.390059,-0.6703765
136,1436894937523,-1.7064673,9.409811,-0.65541273
137,1436894937544,-1.7322049,9.401431,-0.6488287
138,1436894937566,-1.7100586,9.449914,-0.6937199
139,1436894937581,-1.7070658,9.438541,-0.7044938
140,1436894937601,-1.6867151,9.423578,-0.6943185
141,1436894937621,-1.685518,9.40203,-0.7038953
142,1436894937643,-1.685518,9.419388,-0.682946
143,1436894937666,-1.6705543,9.4295635,-0.6679823
144,1436894937681,-1.6591818,9.399636,-0.6392518
145,1436894937704,-1.6771383,9.408614,-0.6584055
146,1436894937724,-1.6657659,9.412206,-0.694917
147,1436894937744,-1.7058687,9.408614,-0.6775591
148,1436894937765,-1.6711528,9.401431,-0.6781576
149,1436894937784,-1.7040731,9.436148,-0.66379243
150,1436894937804,-1.7423803,9.424775,-0.66858083
151,1436894937824,-1.7232267,9.398438,-0.6799533
152,1436894937843,-1.7190368,9.391854,-0.6464345
153,1436894937865,-1.6968905,9.428965,-0.62847793
154,1436894937884,-1.6759412,9.426571,-0.6380547
155,1436894937904,-1.661576,9.409213,-0.6937199
156,1436894937923,-1.6897079,9.433155,-0.7009025
157,1436894937942,-1.6370354,9.448717,-0.7224504
158,1436894938055,-1.6262615,9.363723,-0.6793547
159,1436894938056,-1.6621746,9.402629,-0.6422446
160,1436894938057,-1.7016789,9.411607,-0.6183026
161,1436894938058,-1.6729485,9.416994,-0.6206968
162,1436894938066,-1.6927006,9.438541,-0.670975
163,1436894938067,-1.6759412,9.444528,-0.7194576
164,1436894938081,-1.6729485,9.42238,-0.7128736
165,1436894938103,-1.6831238,9.402629,-0.6961141
166,1436894938121,-1.6837224,9.415198,-0.6548142
167,1436894938147,-1.6370354,9.388264,-0.6631939
168,1436894938175,-1.6424223,9.400833,-0.6691794
169,1436894938183,-1.6490064,9.408614,-0.66139823
170,1436894938203,-1.6573862,9.415198,-0.6775591
171,1436894938225,-1.6777369,9.412804,-0.6769605
172,1436894938244,-1.7250223,9.437943,-0.6703765
173,1436894938264,-1.7411832,9.404425,-0.6679823
174,1436894938284,-1.7501614,9.425972,-0.6428431
175,1436894938304,-1.70946,9.414599,-0.6464345
176,1436894938325,-1.7345991,9.409213,-0.62009823
177,1436894938344,-1.6956934,9.419388,-0.6302736
178,1436894938365,-1.6711528,9.427169,-0.65780693
179,1436894938385,-1.6639702,9.437943,-0.6865373
180,1436894938405,-1.6897079,9.420585,-0.7038953
181,1436894938425,-1.7172412,9.399636,-0.6793547
182,1436894938446,-1.7567455,9.40203,-0.64463884
183,1436894938462,-1.673547,9.419987,-0.6218939
184,1436894938484,-1.6561891,9.400833,-0.6488287
185,1436894938505,-1.6819267,9.432556,-0.6721721
186,1436894938524,-1.7393875,9.417592,-0.6739678
187,1436894938544,-1.7411832,9.418191,-0.6775591
188,1436894938565,-1.690905,9.428367,-0.6865373
189,1436894938583,-1.6705543,9.405023,-0.670975
190,1436894938605,-1.6921021,9.4295635,-0.6374562
191,1436894938625,-1.6938977,9.42238,-0.61171854
192,1436894938646,-1.6621746,9.389461,-0.6218939
193,1436894938665,-1.6813282,9.416395,-0.6841431
194,1436894938685,-1.6831238,9.409213,-0.7038953
195,1436894938703,-1.6645688,9.417592,-0.6757634
196,1436894938725,-1.70946,9.425373,-0.61411273
197,1436894938775,-1.7130513,9.446921,-0.62967503
198,1436894938776,-1.7058687,9.418191,-0.7146692
199,1436894938797,-1.6927006,9.3733,-0.70509243
200,1436894938802,-1.6741456,9.380483,-0.6919243
201,1436894938823,-1.6663644,9.41041,-0.6410475
202,1436894938846,-1.6968905,9.419987,-0.65421563
203,1436894938862,-1.6897079,9.456498,-0.66738373
204,1436894938888,-1.6968905,9.451111,-0.7062895
205,1436894938903,-1.6585833,9.391854,-0.7194576
206,1436894938923,-1.6932992,9.3978405,-0.6871359
207,1436894938943,-1.7190368,9.424775,-0.65780693
208,1436894938963,-1.7489643,9.414001,-0.61411273
209,1436894938991,-1.7304093,9.400234,-0.6655881
210,1436894939003,-1.7286136,9.420585,-0.7398083
211,1436894939025,-1.6938977,9.415796,-0.76075757
212,1436894939050,-1.6460136,9.4457245,-0.7260417
213,1436894939063,-1.644218,9.425972,-0.694917
214,1436894939084,-1.6334441,9.424775,-0.6422446
215,1436894939104,-1.6328455,9.417592,-0.65301853
216,1436894939125,-1.6478093,9.39365,-0.66738373
217,1436894939145,-1.6837224,9.408614,-0.682946
218,1436894939165,-1.6873137,9.412206,-0.6937199
219,1436894939184,-1.690905,9.414599,-0.7104794
220,1436894939204,-1.6897079,9.424775,-0.6931214
221,1436894939225,-1.6932992,9.424176,-0.6823475
222,1436894939245,-1.7064673,9.391256,-0.66738373
223,1436894939264,-1.702876,9.400234,-0.6422446
224,1436894939284,-1.702876,9.422979,-0.6488287
225,1436894939303,-1.6837224,9.438541,-0.65421563
226,1436894939325,-1.678934,9.400234,-0.6973112
227,1436894939345,-1.6980876,9.41879,-0.6799533
228,1436894939383,-1.6723499,9.417592,-0.66259533
229,1436894939384,-1.6154876,9.456498,-0.66858083
230,1436894939404,-1.6310499,9.419388,-0.700304
231,1436894939423,-1.6406267,9.357738,-0.7015011
232,1436894939451,-1.6645688,9.378687,-0.6667852
233,1436894939475,-1.6891093,9.415796,-0.6218939
234,1436894939513,-1.6831238,9.442133,-0.59974754
235,1436894939514,-1.6603789,9.458294,-0.64463884
236,1436894939527,-1.6831238,9.414599,-0.6973112
237,1436894939543,-1.697489,9.408614,-0.7086837
238,1436894939563,-1.6525977,9.403826,-0.700304
239,1436894939583,-1.6124948,9.434352,-0.6452374
240,1436894939603,-1.5921441,9.414599,-0.6392518
241,1436894939623,-1.6478093,9.43076,-0.6739678
242,1436894939646,-1.6561891,9.415198,-0.6584055
243,1436894939664,-1.685518,9.419388,-0.6757634
244,1436894939684,-1.6633717,9.433753,-0.6889315
245,1436894939705,-1.6699557,9.433155,-0.6781576
246,1436894939723,-1.6663644,9.414599,-0.6560113
247,1436894939746,-1.690905,9.427169,-0.641646
248,1436894939766,-1.7238252,9.424176,-0.66139823
249,1436894939786,-1.6992847,9.422979,-0.6751649
250,1436894939806,-1.6693572,9.413403,-0.6985083
251,1436894939826,-1.6639702,9.415796,-0.6697779
252,1436894939846,-1.6813282,9.437943,-0.664391
253,1436894939866,-1.6687586,9.452309,-0.6907272
254,1436894939886,-1.6633717,9.394848,-0.65182143
255,1436894939906,-1.6519991,9.376292,-0.66139823
256,1436894939926,-1.6699557,9.41041,-0.6464345
257,1436894939943,-1.6915035,9.449316,-0.64823014
258,1436894939964,-1.6932992,9.442732,-0.65242
259,1436894939988,-1.6879122,9.436148,-0.6997054
260,1436894940008,-1.6699557,9.401431,-0.7080852
261,1436894940025,-1.6633717,9.399636,-0.6979098
262,1436894940044,-1.6436194,9.4295635,-0.664391
263,1436894940063,-1.6316484,9.400234,-0.65182143
264,1436894940086,-1.6675615,9.412206,-0.65301853
265,1436894940104,-1.6765398,9.421184,-0.6488287
266,1436894940124,-1.6849195,9.440337,-0.6733692
267,1436894940146,-1.6334441,9.430161,-0.6937199
268,1436894940166,-1.6514006,9.41879,-0.6775591
269,1436894940186,-1.6621746,9.4217825,-0.6757634
270,1436894940205,-1.7016789,9.398438,-0.6691794
271,1436894940275,-1.6891093,9.414599,-0.65242
272,1436894940276,-1.678934,9.416994,-0.6338649
273,1436894940277,-1.666963,9.408015,-0.6428431
274,1436894940283,-1.6819267,9.414599,-0.6877344
275,1436894940314,-1.6795325,9.398438,-0.676362
276,1436894940325,-1.685518,9.430161,-0.664391
277,1436894940344,-1.6609775,9.446921,-0.65182143
278,1436894940364,-1.6262615,9.385271,-0.664391
279,1436894940383,-1.6603789,9.394848,-0.6619968
280,1436894940407,-1.7016789,9.409811,-0.64823014
281,1436894940429,-1.697489,9.42238,-0.6398504
282,1436894940445,-1.6956934,9.419388,-0.6811504
283,1436894940467,-1.6903064,9.4295635,-0.688333
284,1436894940487,-1.6747441,9.432556,-0.6757634
285,1436894940506,-1.6406267,9.411008,-0.6745663
286,1436894940527,-1.6478093,9.409213,-0.66738373
287,1436894940547,-1.6412252,9.412206,-0.6536171
288,1436894940567,-1.6783354,9.405622,-0.6344634
289,1436894940587,-1.6956934,9.416994,-0.65421563
290,1436894940607,-1.6771383,9.419388,-0.682946
291,1436894940627,-1.6561891,9.405023,-0.6739678
292,1436894940647,-1.6759412,9.41879,-0.6757634
293,1436894940667,-1.7142484,9.4217825,-0.6428431
294,1436894940687,-1.7292122,9.408614,-0.6380547
295,1436894940704,-1.6980876,9.403227,-0.64463884
296,1436894940724,-1.666963,9.420585,-0.65660983
297,1436894940744,-1.6903064,9.41879,-0.65421563
298,1436894940769,-1.7070658,9.431957,-0.6278794
299,1436894940789,-1.7082629,9.424176,-0.6290765
300,1436894940809,-1.6950948,9.422979,-0.6667852
301,1436894940827,-1.6472107,9.388862,-0.6817489
302,1436894940845,-1.6579847,9.387066,-0.6739678
303,1436894940865,-1.6843209,9.403227,-0.62608373
304,1436894940884,-1.7106571,9.454104,-0.6039374
305,1436894940904,-1.7292122,9.409811,-0.6392518
306,1436894940978,-1.7208325,9.395446,-0.6793547
307,1436894940996,-1.7046716,9.425373,-0.7009025
308,1436894941000,-1.6795325,9.457695,-0.664391
309,1436894941003,-1.6980876,9.446322,-0.66139823
310,1436894941004,-1.6579847,9.379285,-0.6338649
311,1436894941026,-1.6448165,9.375694,-0.65062433
312,1436894941072,-1.661576,9.416994,-0.64823014
313,1436894941073,-1.7471687,9.419388,-0.6404489
314,1436894941084,-1.7597382,9.412804,-0.6422446
315,1436894941136,-1.7196354,9.4295635,-0.65421563
316,1436894941137,-1.7232267,9.42238,-0.66139823
317,1436894941145,-1.7190368,9.40203,-0.6512229
318,1436894941178,-1.7190368,9.363124,-0.62249243
319,1436894941185,-1.7100586,9.412804,-0.62368953
320,1436894941210,-1.6998832,9.446921,-0.6428431
321,1436894941227,-1.6992847,9.394848,-0.6655881
322,1436894941245,-1.7286136,9.39365,-0.6817489
323,1436894941265,-1.7052702,9.413403,-0.6733692
324,1436894941284,-1.7202339,9.426571,-0.62967503
325,1436894941377,-1.7082629,9.385271,-0.61650693
326,1436894941378,-1.721431,9.381081,-0.6326678
327,1436894941379,-1.7381904,9.416395,-0.66020113
328,1436894941380,-1.762731,9.402629,-0.59974754
329,1436894941384,-1.75076,9.422979,-0.6607997
330,1436894941403,-1.7100586,9.408015,-0.6745663
331,1436894941423,-1.7004818,9.428965,-0.6691794
332,1436894941443,-1.690905,9.43076,-0.6655881
333,1436894941482,-1.7178397,9.4062195,-0.6254852
334,1436894941483,-1.7196354,9.421184,-0.6290765
335,1436894941503,-1.6699557,9.416395,-0.6368576
336,1436894941523,-1.6364368,9.425972,-0.6631939
337,1436894941543,-1.6591818,9.41041,-0.61291564
338,1436894941563,-1.7040731,9.396045,-0.57879823
339,1436894941583,-1.7884687,9.415796,-0.5883751
340,1436894941603,-1.7764976,9.411607,-0.56982
341,1436894941623,-1.7369933,9.403826,-0.6380547
342,1436894941643,-1.690905,9.40203,-0.6584055
343,1436894941663,-1.7298107,9.39365,-0.62368953
344,1436894941684,-1.7549498,9.343372,-0.6278794
345,1436894941703,-1.7471687,9.360131,-0.6194997
346,1436894941723,-1.7178397,9.394249,-0.6356605
347,1436894941743,-1.6950948,9.448118,-0.6404489
348,1436894941763,-1.6196774,9.412206,-0.6775591
349,1436894941783,-1.5939398,9.396643,-0.6464345
350,1436894941803,-1.6292542,9.434352,-0.57879823
351,1436894941823,-1.6154876,9.405622,-0.57999533
352,1436894941843,-1.697489,9.359533,-0.57760113
353,1436894941863,-1.7393875,9.391854,-0.60333884
354,1436894941883,-1.7381904,9.397242,-0.6404489
355,1436894941903,-1.733402,9.419388,-0.6380547
356,1436894941924,-1.7405846,9.387066,-0.62608373
357,1436894941944,-1.7220296,9.3822775,-0.6452374
358,1436894941965,-1.7280151,9.391256,-0.6560113
359,1436894941987,-1.751957,9.354745,-0.6596026
360,1436894942004,-1.726818,9.362526,-0.7068881
361,1436894942024,-1.678934,9.3822775,-0.78290397
362,1436894942064,-1.6472107,9.378088,-0.7290344
363,1436894942065,-1.602918,9.412804,-0.7428011
364,1436894942088,-1.6059108,9.433753,-0.81881696
365,1436894942109,-1.6238673,9.433155,-0.8050503
366,1436894942127,-1.5526398,9.414599,-0.8714894
367,1436894942145,-1.5167267,9.409811,-0.90261406
368,1436894942168,-1.5047557,9.446921,-0.96785605
369,1436894942186,-1.541866,9.427169,-0.9828198
370,1436894942206,-1.5346833,9.413403,-1.0630256
371,1436894942235,-1.4975731,9.454104,-1.0552444
372,1436894942257,-1.4616601,9.478644,-1.0636241
373,1436894942309,-1.4383167,9.339781,-1.186327
374,1436894942310,-1.3569138,9.46847,-1.0684125
375,1436894942311,-1.423353,9.460688,-1.0031705
376,1436894942326,-1.5406688,9.458893,-0.96426475
377,1436894942348,-1.6095021,9.404425,-0.9576807
378,1436894942365,-1.7202339,9.379884,-1.0720038
379,1436894942385,-1.6711528,9.372103,-1.1402385
380,1436894942408,-1.5275006,9.3421755,-1.18094
381,1436894942426,-1.5239093,9.369708,-1.2192472
382,1436894942454,-1.5053543,9.363723,-1.2246342
383,1436894942465,-1.5682021,9.3738985,-1.2210429
384,1436894942487,-1.596334,9.390657,-1.3467385
385,1436894942507,-1.5101427,9.378687,-1.3180081
386,1436894942527,-1.3850456,9.355942,-1.3628993
387,1436894942548,-1.2940661,9.414599,-1.4933833
388,1436894942568,-1.2533646,9.432556,-1.483208
389,1436894942588,-1.1498153,9.403227,-1.4293385
390,1436894942608,-1.1821371,9.439739,-1.4269443
391,1436894942628,-1.299453,9.549872,-1.3892355
392,1436894942651,-1.3060371,9.44752,-1.4161704
393,1436894942666,-1.2976574,9.440936,-1.429937
394,1436894942687,-1.4850036,9.485827,-1.4999673
395,1436894942712,-1.6412252,9.312846,-1.5161282
396,1436894942726,-1.7322049,9.266758,-1.590947
397,1436894942750,-1.8525136,9.378687,-1.5771804
398,1436894942770,-1.9686323,9.23683,-1.5783775
399,1436894942790,-2.0123265,9.147646,-1.6023195
400,1436894942809,-2.2026656,9.17099,-1.6771383
401,1436894942826,-2.4378958,9.080608,-1.780089
402,1436894942846,-2.505532,9.115923,-1.8722657
403,1436894942866,-2.7102363,9.144054,-1.8100165
404,1436894942890,-2.718616,9.099164,-1.7645266
405,1436894942912,-2.5181017,9.157223,-1.7369933
406,1436894942926,-2.461838,9.171588,-1.7357962
407,1436894942946,-2.4558525,9.106346,-1.7166426
408,1436894942970,-2.336741,9.11293,-1.7597382
409,1436894943047,-2.295441,9.162011,-1.7902644
410,1436894943048,-2.2403743,9.223662,-1.8177977
