id,attr_time,attr_x,attr_y,attr_z
1,1438258290004,0.07496378,0.035031803,-0.0044885254
2,1438258290022,0.080767006,0.04724911,0.0016201269
3,1438258290046,0.07893441,0.026479691,0.009255942
4,1438258290064,0.08412676,0.0014342153,-0.0014341995
5,1438258290082,0.079545274,0.009680896,-0.011208043
6,1438258290103,0.081377864,0.02159277,-0.006626554
7,1438258290124,0.067938834,0.013651519,-0.00265593
8,1438258290144,0.058164988,-0.0007038135,0.0010092622
9,1438258290162,0.06457907,-0.0028418414,-0.0020450642
10,1438258290183,0.04411509,0.030755747,0.0062016165
11,1438258290201,0.06885513,0.008764598,-0.0017396319
12,1438258290223,0.07221489,0.01731671,-0.00051790103
13,1438258290244,0.069465995,0.015178683,0.0043690205
14,1438258290264,0.053888932,0.00204508,0.010477673
15,1438258290285,0.06152475,-0.018418906,0.00314729
16,1438258290303,0.070993155,-0.015670013,0.0013146941
17,1438258290324,0.07007686,0.0109026255,0.0016201269
18,1438258290345,0.053888932,0.042362187,0.007423347
19,1438258290365,0.064884506,0.030755747,0.005590751
20,1438258290385,0.069771424,0.013956952,0.0025364244
21,1438258290404,0.06335734,0.019760173,0.0013146941
22,1438258290423,0.0835159,0.0011287825,-0.00051790103
23,1438258290445,0.06732797,0.0011287825,0.00070382934
24,1438258290464,0.07404748,0.00204508,0.00070382934
25,1438258290484,0.08473763,0.0011287825,0.00070382934
26,1438258290505,0.082599595,-0.0019255439,-0.00082333386
27,1438258290525,0.06702253,-0.008645061,-0.0044885254
28,1438258290542,0.079239845,0.0011287825,-0.00082333386
29,1438258290562,0.06854969,0.013651519,0.008645078
30,1438258290591,0.07710181,-0.008034196,0.0058961837
31,1438258290650,0.07618551,0.01731671,-0.0041830926
32,1438258290651,0.067633405,0.039918724,0.0016201269
33,1438258290652,0.06702253,0.03564267,0.0028418573
34,1438258290671,0.070687726,0.0359481,9.296369e-05
35,1438258290682,0.07282576,0.017927576,-0.0035722274
36,1438258290707,0.0658008,0.025563393,-0.010902611
37,1438258290722,0.067633405,0.050303433,0.005590751
38,1438258290742,0.05938672,0.039613295,0.008339645
39,1438258290764,0.07313119,0.04633281,0.0043690205
40,1438258290783,0.06824426,0.06771309,0.007423347
41,1438258290803,0.0703823,0.061604444,0.005590751
42,1438258290825,0.064884506,0.0509143,9.296369e-05
43,1438258290843,0.06549537,0.04847084,0.005285319
44,1438258290864,0.07129859,0.024341661,0.0062016165
45,1438258290885,0.0658008,0.04388935,9.296369e-05
46,1438258290903,0.055416096,0.057328384,0.014753729
47,1438258290924,0.06427364,0.034420937,0.012921134
48,1438258290944,0.067938834,0.022203635,0.007423347
49,1438258290965,0.067938834,0.037475266,0.005590751
50,1438258290985,0.07129859,0.046027377,0.00314729
51,1438258291005,0.06610624,0.040835023,0.015670028
52,1438258291025,0.06549537,0.002350513,0.015670028
53,1438258291042,0.07435292,0.011818924,0.00314729
54,1438258291063,0.075269215,0.04633281,0.0043690205
55,1438258291086,0.075269215,0.051525164,0.008339645
56,1438258291104,0.07221489,0.042362187,0.0138374325
57,1438258291123,0.07557465,0.022203635,0.009255942
58,1438258291145,0.069160566,0.029534016,-0.0017396319
59,1438258291166,0.0667171,0.057022955,0.015364595
60,1438258291183,0.075269215,0.03197748,0.012921134
61,1438258291206,0.07160403,0.017927576,0.012615701
62,1438258291224,0.07007686,0.017622143,0.010477673
63,1438258291244,0.06335734,0.04358392,0.012921134
64,1438258291265,0.06885513,0.03900243,0.011088539
65,1438258291285,0.06702253,0.031672046,0.01017224
66,1438258291305,0.05847042,0.026785124,0.0138374325
67,1438258291326,0.067633405,0.024341661,0.016891759
68,1438258291396,0.075269215,0.024647094,0.016891759
69,1438258291397,0.07618551,0.036253534,0.008645078
70,1438258291398,0.06885513,0.039613295,0.01597546
71,1438258291405,0.06854969,0.0377807,0.016280893
72,1438258291432,0.059997585,0.029839449,0.012921134
73,1438258291444,0.07435292,0.02525796,0.007117914
74,1438258291463,0.08504306,0.038696997,0.013532
75,1438258291484,0.07221489,0.035337236,0.017502623
76,1438258291503,0.069160566,0.028006855,0.012921134
77,1438258291525,0.070687726,0.022814501,0.005285319
78,1438258291543,0.06274648,0.027701423,0.0138374325
79,1438258291564,0.06824426,0.02525796,0.012921134
80,1438258291583,0.078018114,0.020676471,0.0138374325
81,1438258291603,0.07893441,0.029534016,0.014448296
82,1438258291624,0.08565392,0.027701423,0.012615701
83,1438258291643,0.079239845,0.037475266,0.0058961837
84,1438258291664,0.06885513,0.04175132,0.015364595
85,1438258291687,0.08290503,0.026174258,0.0077287797
86,1438258291706,0.07771268,0.046943676,0.003452723
87,1438258291726,0.07343662,0.0649642,0.0062016165
88,1438258291744,0.07679638,0.05671752,0.012921134
89,1438258291766,0.08015613,0.026479691,0.0077287797
90,1438258291786,0.06854969,0.020676471,0.008950509
91,1438258291806,0.06060845,0.0359481,0.008339645
92,1438258291826,0.064884506,0.045721944,0.005590751
93,1438258291845,0.07618551,0.042973053,0.009866808
94,1438258291864,0.08504306,0.03411551,0.007117914
95,1438258291886,0.08382133,0.027701423,0.01017224
96,1438258291910,0.07465835,0.02739599,0.010783106
97,1438258291925,0.0703823,0.016705845,0.011699403
98,1438258291947,0.07313119,0.008764598,0.008339645
99,1438258291964,0.078018114,0.031672046,0.012615701
100,1438258291984,0.07771268,0.044194784,0.0058961837
101,1438258292005,0.07618551,0.056106653,0.005285319
102,1438258292024,0.07618551,0.04724911,0.010783106
103,1438258292104,0.07740724,0.01945474,0.00070382934
104,1438258292105,0.07740724,0.011818924,0.007423347
105,1438258292106,0.08473763,0.005710271,0.0120048355
106,1438258292107,0.079239845,0.023730796,0.013226567
107,1438258292123,0.069160566,0.029534016,0.012615701
108,1438258292151,0.06824426,0.035031803,0.0013146941
109,1438258292166,0.07160403,0.048165407,0.0003983965
110,1438258292184,0.064884506,0.039918724,0.00314729
111,1438258292206,0.06335734,0.0509143,0.009866808
112,1438258292225,0.07252032,0.045111082,0.005285319
113,1438258292254,0.06854969,0.04388935,0.007117914
114,1438258292264,0.0816833,0.029534016,0.009561375
115,1438258292291,0.090846285,0.030755747,0.0080342125
116,1438258292304,0.075269215,0.034420937,0.011699403
117,1438258292327,0.07557465,0.03900243,0.006812481
118,1438258292344,0.0703823,0.046027377,0.0065070484
119,1438258292364,0.07557465,0.042362187,0.009255942
120,1438258292387,0.07557465,0.0368644,0.009255942
121,1438258292407,0.069160566,0.029839449,0.006812481
122,1438258292427,0.07282576,0.025868826,0.005285319
123,1438258292444,0.07496378,0.03564267,0.014142865
124,1438258292466,0.07740724,0.025563393,0.012921134
125,1438258292484,0.07343662,0.025868826,0.011088539
126,1438258292507,0.081072435,0.028617721,0.0016201269
127,1438258292525,0.063662775,0.04847084,0.010477673
128,1438258292545,0.06549537,0.041140456,0.009255942
129,1438258292564,0.070687726,0.0377807,0.01017224
130,1438258292584,0.073742054,0.035337236,0.0077287797
131,1438258292607,0.075269215,0.04847084,0.0065070484
132,1438258292627,0.069160566,0.05946641,0.010783106
133,1438258292644,0.069771424,0.04052959,0.0062016165
134,1438258292685,0.07129859,0.040224157,0.007117914
135,1438258292686,0.06854969,0.040224157,0.005590751
136,1438258292704,0.063662775,0.039307863,0.009866808
137,1438258292725,0.07435292,0.037475266,0.007423347
138,1438258292744,0.070687726,0.0359481,0.004979886
139,1438258292764,0.07160403,0.054579493,0.009561375
140,1438258292784,0.056637824,0.06924026,0.012615701
141,1438258292812,0.060303017,0.06282617,0.011393972
142,1438258292841,0.05236177,0.06985112,0.011393972
143,1438258292845,0.06274648,0.05641209,0.011393972
144,1438258292864,0.06732797,0.06282617,0.009561375
145,1438258292885,0.060913883,0.048165407,0.014448296
146,1438258292905,0.069160566,0.046943676,0.0046744533
147,1438258292924,0.07007686,0.06588049,0.00070382934
148,1438258292945,0.08901368,0.059771847,-0.00082333386
149,1438258292966,0.07832354,0.04755454,0.009561375
150,1438258292985,0.07465835,0.012124357,0.017808056
151,1438258293006,0.07343662,0.003877676,0.014753729
152,1438258293026,0.08534849,0.010291762,0.0046744533
153,1438258293044,0.07404748,0.037169833,0.010783106
154,1438258293065,0.07435292,0.016400412,0.010783106
155,1438258293086,0.07740724,0.02159277,0.009561375
156,1438258293106,0.07893441,0.036253534,0.012921134
157,1438258293125,0.08290503,0.022814501,0.013226567
158,1438258293144,0.0798507,0.013040655,0.0058961837
159,1438258293168,0.0703823,0.036253534,0.0022309925
160,1438258293185,0.0658008,0.04266762,0.0010092622
161,1438258293207,0.08412676,0.042973053,0.007423347
162,1438258293225,0.078018114,0.034420937,0.018418921
163,1438258293246,0.08473763,0.0029613776,0.014448296
164,1438258293269,0.081072435,0.014567818,0.0080342125
165,1438258293287,0.079239845,0.033504643,0.0065070484
166,1438258293309,0.07832354,0.03197748,0.008950509
167,1438258293330,0.07588008,0.008764598,0.007117914
168,1438258293347,0.070993155,0.0026559448,0.003452723
169,1438258293367,0.07679638,0.030450314,0.003452723
170,1438258293385,0.082599595,0.039613295,0.0120048355
171,1438258293405,0.08015613,0.01945474,0.011699403
172,1438258293425,0.08748652,0.011818924,0.0077287797
173,1438258293448,0.0816833,0.016094983,0.00070382934
174,1438258293470,0.07129859,0.032893777,0.0003983965
175,1438258293489,0.07496378,0.047859974,0.0037581557
176,1438258293507,0.08626479,0.035337236,0.0016201269
177,1438258293530,0.08718109,0.026785124,0.0040635876
178,1438258293597,0.08321047,0.034420937,0.011699403
179,1438258293598,0.08626479,0.018843874,0.007423347
180,1438258293599,0.07893441,0.020676471,0.0062016165
181,1438258293605,0.07588008,0.040835023,0.0019255597
182,1438258293634,0.0798507,0.05060887,-0.00051790103
183,1438258293646,0.0816833,0.048165407,9.296369e-05
184,1438258293667,0.08290503,0.03228291,-0.00082333386
185,1438258293690,0.08321047,0.020981904,0.005590751
186,1438258293705,0.06885513,0.011513491,0.0080342125
187,1438258293729,0.07862897,0.015484116,0.009561375
188,1438258293746,0.07588008,0.029534016,0.006812481
189,1438258293769,0.09054084,0.03472637,-0.0029613622
190,1438258293785,0.088097386,0.037475266,0.0077287797
191,1438258293807,0.10031469,0.01242979,0.012615701
192,1438258293827,0.1097831,-0.003452707,0.01017224
193,1438258293847,0.10184185,0.0035722433,0.0065070484
194,1438258293867,0.08992998,0.03197748,0.008950509
195,1438258293889,0.08870825,0.030144881,0.031247092
196,1438258293907,0.10062012,0.020371038,0.04376983
197,1438258293927,0.124443874,0.00907003,0.035523146
198,1438258293948,0.13421771,0.022814501,0.0138374325
199,1438258293967,0.12505473,0.08237386,0.014753729
200,1438258293991,0.0975658,0.15140162,0.024222141
201,1438258294009,0.06183018,0.15567769,0.025749305
202,1438258294029,0.07343662,0.14162779,0.021473248
203,1438258294049,0.10795051,0.16392437,0.020862382
204,1438258294068,0.105812475,0.17247649,0.022389544
205,1438258294088,0.09909296,0.15628855,0.027887331
206,1438258294107,0.10000926,0.14865273,0.041020937
207,1438258294130,0.088097386,0.14590384,0.040104635
208,1438258294150,0.092373446,0.15598312,0.03094166
209,1438258294167,0.0984821,0.17522538,0.03185796
210,1438258294186,0.09176257,0.18958071,0.048351318
211,1438258294207,0.06824426,0.20485234,0.060263194
212,1438258294229,0.06060845,0.24180968,0.05812516
213,1438258294256,0.043809656,0.31847328,0.058736026
214,1438258294311,-0.015138842,0.37070227,0.057514302
215,1438258294312,-0.08661008,0.42598557,0.05781973
216,1438258294313,-0.16754971,0.4925699,0.059346892
217,1438258294335,-0.26437184,0.5912246,0.06942617
218,1438258294345,-0.3630266,0.70789987,0.09416621
219,1438258294366,-0.53132,0.7622669,0.13937023
220,1438258294386,-0.7154959,0.7879232,0.18762858
221,1438258294405,-0.9693104,0.7158411,0.23435979
222,1438258294426,-1.3846987,0.555489,0.29697347
223,1438258294446,-1.6049156,0.546326,0.27192798
224,1438258294467,-1.6592827,0.6727751,0.18854488
225,1438258294487,-1.8449857,0.55823785,0.16105595
226,1438258294509,-1.8914114,0.67980003,0.29758433
227,1438258294526,-1.598807,0.49715135,0.5123035
228,1438258294550,-1.5603225,0.03228291,0.54009783
229,1438258294568,-1.4607514,-0.19709699,0.5159687
230,1438258294589,-1.1641763,-0.14914407,0.5358218
231,1438258294610,-0.6999188,0.12543985,0.5895779
232,1438258294629,-0.3556962,0.45866686,0.6204266
233,1438258294648,-0.22466561,0.72011715,0.57766604
234,1438258294669,-0.12356742,0.78212,0.47290266
235,1438258294689,-0.0774471,0.7143139,0.37333164
236,1438258294709,-0.1870974,0.66941535,0.31255054
237,1438258294728,-0.21977869,0.52341855,0.3122451
238,1438258294746,-0.20450707,0.31419724,0.2682628
239,1438258294770,-0.16571712,0.27204752,0.22000444
240,1438258294789,-0.071643874,0.25738677,0.20351109
241,1438258294809,-0.06125917,0.17858513,0.20656541
242,1438258294829,-0.18129419,0.060382713,0.18823946
243,1438258294850,-0.19015174,-0.12806922,0.14456259
244,1438258294870,-0.21244831,-0.2590998,0.015059162
245,1438258294889,-0.22802538,-0.3479807,-0.058855534
246,1438258294909,-0.2396318,-0.45518753,-0.11047364
247,1438258294929,-0.19503865,-0.5575075,-0.19874369
248,1438258294950,-0.1290652,-0.7642854,-0.2616628
249,1438258294971,-0.025828984,-0.8378947,-0.32274932
250,1438258294989,0.16415012,-0.7636745,-0.30992115
251,1438258295010,0.2539473,-0.831786,-0.30717227
252,1438258295080,0.22279318,-0.8281208,-0.37436745
253,1438258295081,0.31136864,-0.87821174,-0.44278434
254,1438258295082,0.44881332,-0.9579297,-0.5081469
255,1438258295089,0.5630451,-0.99213815,-0.47363305
256,1438258295116,0.73653084,-0.97014695,-0.3542089
257,1438258295129,0.871532,-0.9591514,-0.26288453
258,1438258295146,0.87825155,-0.88034976,-0.23234127
259,1438258295169,0.7072093,-0.8898182,-0.20973925
260,1438258295193,0.53922135,-1.0688016,-0.16942215
261,1438258295232,0.54319197,-1.4282959,-0.0875662
262,1438258295233,0.6671976,-1.309788,-0.04633279
263,1438258295247,0.73133844,-0.88218236,-0.0041830926
264,1438258295272,0.7117908,-0.6405852,-0.030144867
265,1438258295289,0.64245754,-0.4090672,-0.0726
266,1438258295310,0.47874573,-0.2704008,-0.16758955
267,1438258295327,0.31350666,-0.32690585,-0.13796258
268,1438258295349,0.1782,-0.4744298,-0.097950906
269,1438258295370,-0.053012487,-0.4417485,-0.10619759
270,1438258295390,-0.07042214,-0.4735135,-0.045111068
271,1438258295410,0.13635574,-0.7667289,-0.20790666
272,1438258295430,0.36756822,-0.7685614,-0.57412034
273,1438258295449,0.44759157,-0.2392467,-0.6626958
274,1438258295470,0.32175335,-0.0031472743,-0.50631434
275,1438258295488,-0.2048125,0.068323955,-0.24028252
276,1438258295508,-0.79124314,-0.26887363,-0.29709297
277,1438258295527,-0.1018817,-0.79421777,-0.4067433
278,1438258295547,0.46500126,-0.011088522,-0.4641646
279,1438258295566,0.54533,1.2274408,-0.37070224
280,1438258295589,0.24417347,1.7518686,-0.20821209
281,1438258295612,-0.025828984,1.7078863,-0.2353956
282,1438258295634,-0.05820484,1.4568207,-0.33343947
283,1438258295652,0.21118674,1.3923744,-0.3795598
284,1438258295670,0.5263932,1.7155222,-0.37436745
285,1438258295689,0.63115656,2.1083086,-0.27265838
286,1438258295708,0.20385635,2.2378118,0.007117914
287,1438258295729,-0.1421988,1.9061121,0.01933522
288,1438258295757,-0.19931471,1.6351933,-0.22104026
289,1438258295812,-0.09241329,1.4030646,-0.39666402
290,1438258295813,-0.012389947,1.244545,-0.38689017
291,1438258295814,-0.1513618,0.9446101,-0.22684348
292,1438258295832,-0.24299157,0.5869485,-0.09489658
293,1438258295847,-0.29858032,0.5142556,-0.15720484
294,1438258295876,-0.36974612,0.5347195,-0.28243223
295,1438258295890,-0.43877387,0.4430898,-0.29770386
296,1438258295907,-0.30377266,0.21096098,-0.2466966
297,1438258295929,-0.34592238,-0.05629255,-0.12818874
298,1438258295947,-0.7194665,-0.13295613,0.06117949
299,1438258295970,-1.0447522,-0.085308656,0.13692677
300,1438258295992,-1.4518939,-0.120433405,0.017502623
301,1438258296008,-1.4369277,0.024341661,-0.08726077
302,1438258296027,-1.3862259,-0.22550222,-0.07382173
303,1438258296050,-1.6064428,-0.44205394,-0.15445594
304,1438258296071,-1.7606863,-0.478095,-0.17064388
305,1438258296090,-2.2680097,-0.39990425,0.059041463
306,1438258296110,-2.154389,-0.2129795,0.04804589
307,1438258296130,-2.186154,-0.18946117,-0.11444427
308,1438258296150,-2.1140718,-0.5229936,-0.27998877
309,1438258296169,-2.3129084,-0.5355164,-0.22409458
310,1438258296194,-2.1788235,-0.48237106,-0.20515776
311,1438258296215,-1.9589121,-0.2871996,-0.3001473
312,1438258296231,-1.8080283,-0.107299805,-0.25280523
313,1438258296247,-1.8807213,0.15140162,-0.3114483
314,1438258296270,-1.9766272,-0.05171106,-0.43178877
315,1438258296291,-1.7301431,-0.20595454,-0.48401776
316,1438258296311,-1.5166457,-0.12287687,-0.54174453
317,1438258296331,-1.4641112,-0.240163,-0.4339268
318,1438258296349,-1.4735796,-0.113103025,-0.482796
319,1438258296369,-1.5258086,0.10375414,-0.52769464
320,1438258296390,-1.4048573,0.28976262,-0.512423
321,1438258296412,-1.2698561,0.40032923,-0.46355376
322,1438258296432,-1.0917889,0.32733083,-0.33405033
323,1438258296453,-0.9616746,0.2943441,-0.190497
324,1438258296470,-0.7884943,0.36031756,-0.1614809
325,1438258296493,-0.58415985,0.7463844,-0.09123139
326,1438258296562,-0.39265355,1.5457016,-0.23142497
327,1438258296563,-0.11348814,1.4293318,-0.3899445
328,1438258296564,-0.041406047,1.1623837,-0.3560415
329,1438258296571,-0.068284124,1.1180959,-0.32641453
330,1438258296589,-0.084166616,0.9275059,-0.25219437
331,1438258296611,0.0013545211,0.68713045,-0.12696701
332,1438258296629,0.1152809,0.7063727,-0.006626554
333,1438258296674,0.24967125,0.80533284,0.096304245
334,1438258296675,0.3635976,0.7109542,0.16502658
335,1438258296698,0.3718443,0.50539804,0.21481209
336,1438258296710,0.34343907,0.2717421,0.18915576
337,1438258296733,0.21698995,0.3560415,0.12654206
338,1438258296751,0.04533682,0.5334978,0.05201651
339,1438258296769,-0.059426572,0.43392682,0.024833007
340,1438258296791,-0.13028693,0.27204752,-0.042973034
341,1438258296811,-0.11379357,0.13643543,-0.084817305
342,1438258296831,-0.06706239,0.11841491,-0.11169537
343,1438258296852,-0.06461893,0.05519036,-0.12635614
344,1438258296871,-0.102798,0.018843874,-0.1465147
345,1438258296893,-0.24482417,-0.019640636,-0.13521369
346,1438258296911,-0.35783425,-0.075534806,-0.102532394
347,1438258296931,-0.19320606,-0.13937023,-0.1165823
348,1438258296953,-0.031632204,-0.027887318,-0.11138994
349,1438258296969,-0.03957345,0.110168226,-0.07290543
350,1438258296991,-0.05851027,0.02159277,-0.046943657
351,1438258297011,-0.049041864,-0.07125875,-0.04236217
352,1438258297031,-0.03835172,-0.06056861,-0.012124341
353,1438258297050,-0.014222544,-0.015670013,0.038272038
354,1438258297071,0.01998591,-0.005896168,0.07125877
355,1438258297091,0.045947686,0.0017396472,0.060568623
356,1438258297112,0.053888932,0.02525796,0.07645112
357,1438258297131,0.033424947,0.04480565,0.121349715
358,1438258297151,0.034341246,0.04480565,0.1549473
359,1438258297176,0.043504223,0.06893482,0.15922335
360,1438258297200,0.04655855,0.09489659,0.15616903
361,1438258297209,0.01754245,0.11352798,0.18365796
362,1438258297293,-0.009335622,0.10650303,0.23008372
363,1438258297294,-0.004448699,0.056106653,0.24504992
364,1438258297295,0.029759755,0.038391564,0.21084146
365,1438258297296,0.04533682,0.07076742,0.18976662
366,1438258297313,0.042282492,0.104365006,0.21786642
367,1438258297330,0.06060845,0.06862939,0.27314973
368,1438258297352,0.06152475,-0.0773674,0.27712035
369,1438258297369,0.003797982,-0.15250383,0.2850616
370,1438258297389,-0.050569024,-0.1598342,0.3299602
371,1438258297411,-0.06797868,-0.21420123,0.42372802
372,1438258297430,0.025178265,-0.39226842,0.41425958
373,1438258297450,0.046253115,-0.3815783,0.3235461
374,1438258297469,-0.047514696,-0.28292355,0.31346682
375,1438258297492,-0.0774471,-0.2645976,0.36508495
376,1438258297512,-0.0068921596,-0.26978993,0.35775456
377,1438258297532,0.07343662,-0.25390744,0.22030988
378,1438258297552,0.06732797,-0.18762858,0.1250149
379,1438258297572,0.050223738,-0.25299117,0.1259312
380,1438258297592,0.08870825,-0.27345514,0.1295964
