id,attr_time,attr_x,attr_y,attr_z
1,1436167051125,0.00580322,0.086437434,-0.03634648
2,1436167051147,-0.0018325958,0.0983493,-0.033292156
3,1436167051166,0.0018325958,0.093462385,-0.044898596
4,1436167051187,0.0125227375,0.12461651,-0.055283304
5,1436167051206,0.015271631,0.1423316,-0.0711658
6,1436167051229,0.0036651916,0.14538592,-0.06963864
7,1436167051247,-0.009468411,0.12370021,-0.064446285
8,1436167051268,-0.004886922,0.13836098,-0.04184427
9,1436167051288,0.011301007,0.067500606,-0.00061086525
10,1436167051306,0.03023783,-0.07238753,0.015577064
11,1436167051327,0.057726767,-0.13561209,0.021380283
12,1436167051347,0.06291912,-0.14874569,0.018936822
13,1436167051368,0.0421497,-0.09712757,0.008552114
14,1436167051388,0.025961773,-0.03848451,-0.01038471
15,1436167051406,0.020158553,-0.0033597588,-0.028710667
16,1436167051428,0.00580322,0.021685716,-0.034208454
17,1436167051447,0.0106901415,0.046731193,-0.018020526
18,1436167051466,0.045814894,0.01282817,0.010995574
19,1436167051486,0.063224554,-0.04734206,0.020463986
20,1436167051510,0.054061573,-0.087659165,0.016187929
21,1436167051530,0.020158553,-0.081855945,-0.005497787
22,1436167051551,0.012217305,-0.03359759,-0.025961773
23,1436167051567,0.044898596,0.021991149,-0.035124753
24,1436167051586,0.049480084,0.024740042,-0.018936822
25,1436167051606,0.046120327,0.003970624,-0.009773844
26,1436167051626,0.024740042,-0.003970624,-0.01160644
27,1436167051647,0.004581489,0.008246681,-0.0290161
28,1436167051670,0.00030543262,0.0076358155,-0.03726278
29,1436167051740,-0.009468411,-0.0143553335,-0.040011674
30,1436167051741,0.002443461,0.003970624,-0.03848451
31,1436167051742,0.022602014,0.016493361,-0.028099801
32,1436167051750,0.03604105,-0.00030543262,-0.020158553
33,1436167051766,0.037873644,-0.010995574,-0.020158553
34,1436167051787,0.038789943,-0.030543262,-0.03145956
35,1436167051806,0.034513887,0.0125227375,-0.03604105
36,1436167051831,0.04153884,0.0421497,-0.026572637
37,1436167051847,0.02076942,0.0070249503,-0.019242255
38,1436167051867,-0.00580322,-0.003970624,-0.03359759
39,1436167051887,-0.014660766,0.011301007,-0.051923547
40,1436167051908,0.00030543262,0.06658431,-0.06780604
41,1436167051928,0.03634648,0.1160644,-0.06505715
42,1436167051949,0.045814894,0.09468412,-0.05100725
43,1436167051969,0.035124753,0.061391957,-0.027488936
44,1436167051989,0.0061086523,-0.015271631,-0.004581489
45,1436167052007,-0.008857546,-0.04428773,-0.0033597588
46,1436167052028,0.007941248,-0.027183503,-0.009162978
47,1436167052049,0.028099801,-0.027183503,-0.017104227
48,1436167052069,0.025961773,-0.0143553335,-0.028099801
49,1436167052089,0.014660766,0.0125227375,-0.028099801
50,1436167052106,0.008857546,0.01160644,-0.027794369
51,1436167052127,0.0033597588,-0.016187929,-0.009773844
52,1436167052147,0.0061086523,-0.074830994,-0.00030543262
53,1436167052168,0.028710667,-0.069027774,-0.0076358155
54,1436167052190,0.035124753,-0.029626964,-0.02443461
55,1436167052206,0.035430185,0.03940081,-0.028710667
56,1436167052228,0.011911872,0.056199603,-0.03359759
57,1436167052248,0.0076358155,0.07422013,-0.027183503
58,1436167052269,-0.003970624,0.035430185,-0.029932396
59,1436167052290,0.01863139,0.018936822,-0.040011674
60,1436167052306,0.014660766,0.016493361,-0.039095376
61,1436167052328,-0.01160644,0.0143553335,-0.023518313
62,1436167052348,-0.0027488936,-0.010079277,-0.01985312
63,1436167052369,0.015882496,-0.04734206,-0.0125227375
64,1436167052387,0.0061086523,-0.01282817,-0.009468411
65,1436167052410,-0.015271631,-0.024129177,-0.01038471
66,1436167052475,0.02321288,-0.0143553335,-0.028710667
67,1436167052476,0.047036625,0.0009162979,-0.030543262
68,1436167052477,0.023823744,-0.008857546,-0.030543262
69,1436167052487,0.018936822,0.01160644,-0.021380283
70,1436167052514,0.01985312,-0.0015271631,-0.016493361
71,1436167052527,0.0033597588,0.00030543262,-0.01740966
72,1436167052549,0.009162978,0.037873644,-0.019242255
73,1436167052568,0.009468411,0.021685716,-0.015882496
74,1436167052587,0.035430185,-0.024129177,-0.0143553335
75,1436167052608,0.032986723,-0.03970624,-0.021380283
76,1436167052629,0.009162978,-0.004276057,-0.01740966
77,1436167052648,0.014966198,-0.009773844,-0.010079277
78,1436167052668,0.0290161,-0.016493361,-0.015577064
79,1436167052688,0.0067195175,0.0018325958,-0.021991149
80,1436167052706,0.012217305,0.035430185,-0.029932396
81,1436167052728,0.04062254,0.036957346,-0.0290161
82,1436167052748,0.05009095,0.023823744,-0.021991149
83,1436167052767,0.034513887,0.013133603,-0.018020526
84,1436167052792,0.008552114,0.016493361,-0.016187929
85,1436167052819,0.005192355,0.010079277,-0.02107485
86,1436167052827,0.007330383,0.013744468,-0.018936822
87,1436167052847,0.011911872,0.012217305,-0.019547688
88,1436167052867,0.02687807,-0.002443461,-0.019547688
89,1436167052887,0.017715093,-0.023823744,-0.025961773
90,1436167052907,0.007941248,0.009468411,-0.0290161
91,1436167052927,0.009468411,0.031154128,-0.025350908
92,1436167052947,0.035430185,0.058337633,-0.017104227
93,1436167052967,0.029321533,0.0,-0.01038471
94,1436167052987,0.009468411,-0.03970624,-0.02687807
95,1436167053007,0.02076942,0.019242255,-0.020158553
96,1436167053027,0.01863139,0.0070249503,-0.018020526
97,1436167053047,0.032070424,0.017715093,-0.014049901
98,1436167053067,0.03268129,-0.003970624,-0.0106901415
99,1436167053087,0.019242255,-0.02687807,-0.021380283
100,1436167053111,0.02687807,0.010995574,-0.023518313
101,1436167053127,0.03481932,0.014660766,-0.008857546
102,1436167053147,0.022296581,-0.027488936,-0.0030543262
103,1436167053180,0.018020526,-0.015577064,-0.016493361
104,1436167053189,0.02687807,-0.007330383,-0.034513887
105,1436167053207,0.048258353,0.05375614,-0.03481932
106,1436167053227,0.04184427,0.048258353,-0.020158553
107,1436167053247,0.023518313,-0.0009162979,-0.0125227375
108,1436167053267,0.008246681,-0.013744468,-0.012217305
109,1436167053287,0.0125227375,-0.013439035,-0.029321533
110,1436167053318,0.037873644,0.04917465,-0.03023783
111,1436167053327,0.044898596,0.019242255,-0.01985312
112,1436167053347,0.036651913,-0.029626964,-0.00580322
113,1436167053367,0.0290161,-0.03481932,-0.0030543262
114,1436167053387,0.0033597588,-0.036651913,-0.016798794
115,1436167053406,0.0125227375,0.028099801,-0.027183503
116,1436167053426,0.015271631,0.025961773,-0.027183503
117,1436167053449,0.021991149,0.016798794,-0.03359759
118,1436167053467,0.019242255,0.02107485,-0.02443461
119,1436167053487,0.01985312,0.0021380284,-0.026267206
120,1436167053507,0.015271631,0.007941248,-0.02107485
121,1436167053527,0.02443461,0.017715093,-0.016493361
122,1436167053547,0.03268129,0.012217305,-0.014049901
123,1436167053568,0.015577064,0.005497787,-0.015577064
124,1436167053588,0.004276057,-0.0067195175,-0.01985312
125,1436167053607,0.014966198,-0.01160644,-0.010995574
126,1436167053627,0.031154128,-0.03481932,-0.011911872
127,1436167053647,0.037873644,-0.024740042,-0.02321288
128,1436167053667,0.024740042,0.047036625,-0.029932396
129,1436167053689,-0.0027488936,0.05681047,-0.032070424
130,1436167053712,-0.018325957,0.024129177,-0.025350908
131,1436167053727,0.0036651916,-0.0021380284,-0.023518313
132,1436167053749,0.030543262,-0.024129177,-0.01863139
133,1436167053771,0.028710667,-0.032986723,-0.007330383
134,1436167053787,0.0290161,-0.058948494,-0.008246681
135,1436167053808,0.009162978,-0.026267206,-0.019242255
136,1436167053828,0.008857546,0.03176499,-0.020158553
137,1436167053853,0.022296581,0.021685716,-0.015882496
138,1436167053905,0.03573562,0.004886922,-0.025045475
139,1436167053906,0.028405234,0.01985312,-0.017104227
140,1436167053912,0.02107485,-0.027183503,-0.01282817
141,1436167053935,0.013439035,-0.044593163,-0.0143553335
142,1436167053948,0.022296581,-0.022907447,-0.016187929
143,1436167053969,0.028405234,0.008857546,-0.01160644
144,1436167053988,0.0421497,0.00030543262,-0.01038471
145,1436167054008,0.023823744,-0.013744468,-0.017715093
146,1436167054030,0.013744468,-0.009773844,-0.014049901
147,1436167054049,0.0106901415,-0.027488936,-0.016798794
148,1436167054092,0.022296581,-0.009468411,-0.018020526
149,1436167054093,0.041233405,-0.008246681,-0.0143553335
150,1436167054110,0.03756821,-0.05009095,-0.0143553335
151,1436167054133,0.023823744,-0.040317107,-0.014660766
152,1436167054150,0.01863139,-0.0061086523,-0.02107485
153,1436167054169,0.016187929,0.030848695,-0.015577064
154,1436167054189,0.04153884,0.015271631,-0.012217305
155,1436167054209,0.053145275,-0.04062254,-0.020158553
156,1436167054245,0.01863139,-0.03756821,-0.028099801
157,1436167054249,0.0027488936,0.021991149,-0.03023783
158,1436167054285,0.011911872,0.037873644,-0.018325957
159,1436167054288,0.044898596,0.0067195175,-0.0106901415
160,1436167054308,0.038179077,-0.005497787,-0.0061086523
161,1436167054328,0.0290161,-0.04886922,-0.009468411
162,1436167054350,0.0290161,-0.046731193,-0.009468411
163,1436167054368,0.026572637,-0.03390302,-0.01160644
164,1436167054388,0.028710667,-0.011301007,-0.01740966
165,1436167054414,0.03359759,0.0030543262,-0.020158553
166,1436167054431,0.03176499,0.004886922,-0.018325957
167,1436167054448,0.02321288,0.0021380284,-0.016187929
168,1436167054468,0.032070424,-0.0076358155,-0.013439035
169,1436167054488,0.041233405,-0.003970624,-0.011911872
170,1436167054508,0.032986723,-0.0106901415,-0.00061086525
171,1436167054529,0.043676864,-0.022907447,0.00061086525
172,1436167054549,0.04795292,-0.059864793,-0.0021380284
173,1436167054572,0.020463986,-0.06291912,-0.0036651916
174,1436167054588,0.0061086523,-0.05222898,-0.01038471
175,1436167054609,0.030543262,-0.013439035,-0.01985312
176,1436167054630,0.042760566,0.013439035,-0.02443461
177,1436167054651,0.045814894,0.012217305,-0.021685716
178,1436167054669,0.046120327,0.01985312,-0.019547688
179,1436167054689,0.024740042,0.042760566,-0.021380283
180,1436167054711,0.014660766,0.04184427,-0.02321288
181,1436167054761,0.050396383,0.040927973,-0.0290161
182,1436167054762,0.059864793,0.027183503,-0.0290161
183,1436167054789,0.05589417,0.022296581,-0.024129177
184,1436167054790,0.05131268,0.04184427,-0.0106901415
185,1436167054809,0.046731193,0.02107485,0.010995574
186,1436167054830,0.03481932,-0.021380283,0.009162978
187,1436167054848,0.027488936,-0.04886922,-0.0067195175
188,1436167054872,0.036651913,-0.0143553335,-0.03634648
189,1436167054893,0.04337143,0.029932396,-0.037873644
190,1436167054913,0.03573562,0.040927973,-0.02565634
191,1436167054933,0.022602014,0.035124753,-0.021991149
192,1436167054952,0.025350908,0.020463986,-0.01740966
193,1436167054971,0.02107485,0.008246681,-0.018020526
194,1436167054993,0.023518313,0.01160644,-0.029626964
195,1436167055013,0.02565634,0.026267206,-0.035124753
196,1436167055033,0.021380283,0.034208454,-0.03604105
197,1436167055049,0.018020526,0.059864793,-0.03634648
198,1436167055071,0.029321533,0.059864793,-0.03176499
199,1436167055092,0.05131268,0.03634648,-0.014660766
200,1436167055110,0.06261369,0.0018325958,0.00061086525
201,1436167055132,0.04337143,-0.050701816,-0.00061086525
202,1436167055151,0.018325957,-0.046120327,-0.0036651916
203,1436167055168,0.020158553,-0.009773844,-0.018936822
204,1436167055192,0.03634648,0.026572637,-0.02687807
205,1436167055212,0.04917465,0.028710667,-0.02321288
206,1436167055232,0.04795292,0.005192355,-0.015577064
207,1436167055251,0.033292156,-0.036957346,-0.01282817
208,1436167055271,0.026572637,-0.029626964,-0.010995574
209,1436167055292,0.026267206,-0.01985312,-0.018020526
210,1436167055309,0.027794369,-0.01160644,-0.021685716
211,1436167055329,0.028099801,0.0143553335,-0.020463986
212,1436167055351,0.01863139,-0.029932396,-0.025961773
213,1436167055372,0.0018325958,-0.03359759,-0.03756821
214,1436167055403,0.018325957,0.032070424,-0.04062254
215,1436167055410,0.021991149,0.050701816,-0.032070424
216,1436167055430,0.019242255,0.04917465,-0.019547688
217,1436167055451,0.015882496,-0.002443461,-0.007941248
218,1436167055472,0.016493361,-0.05222898,-0.008246681
219,1436167055490,0.014660766,-0.04337143,-0.0125227375
220,1436167055513,0.03940081,-0.01038471,-0.022296581
221,1436167055530,0.04734206,0.0061086523,-0.016798794
222,1436167055553,0.031154128,-0.0143553335,-0.008857546
223,1436167055572,0.010079277,-0.0143553335,-0.014049901
224,1436167055592,-0.010995574,-0.008857546,-0.025350908
225,1436167055613,0.0012217305,0.030848695,-0.040317107
226,1436167055633,0.03481932,0.046120327,-0.040317107
227,1436167055652,0.04642576,-0.005192355,-0.015271631
228,1436167055672,0.048563786,-0.032986723,-0.00580322
229,1436167055693,0.03023783,-0.04642576,0.007330383
230,1436167055713,0.017715093,-0.058337633,0.0
231,1436167055733,0.016798794,-0.03726278,-0.009773844
232,1436167055751,0.026267206,-0.01863139,-0.03023783
233,1436167055772,0.03634648,0.022296581,-0.029626964
234,1436167055793,0.036651913,0.024129177,-0.022296581
235,1436167055810,0.019547688,0.027183503,-0.01863139
236,1436167055830,0.013744468,0.010995574,-0.02443461
237,1436167055850,0.019547688,0.013744468,-0.033292156
238,1436167055870,0.029321533,0.01985312,-0.02687807
239,1436167055896,0.037873644,0.014966198,-0.015271631
240,1436167055915,0.029932396,-0.009162978,-0.014966198
241,1436167055933,0.021685716,-0.004276057,-0.020158553
242,1436167055950,0.028405234,0.013439035,-0.027183503
243,1436167055970,0.04153884,0.026267206,-0.022296581
244,1436167055990,0.043066,0.012217305,-0.0125227375
245,1436167056014,0.030543262,0.0012217305,-0.02076942
246,1436167056031,0.005497787,0.0021380284,-0.030543262
247,1436167056103,0.01740966,0.007330383,-0.02443461
248,1436167056104,0.036957346,0.0030543262,-0.024740042
249,1436167056105,0.045814894,-0.0067195175,-0.018325957
250,1436167056113,0.013133603,-0.017715093,-0.025350908
251,1436167056131,-0.0015271631,0.023518313,-0.03604105
252,1436167056180,0.0033597588,0.07880162,-0.03604105
253,1436167056181,0.01038471,0.06169739,-0.029321533
254,1436167056243,0.035124753,0.018325957,-0.016798794
255,1436167056244,0.041233405,-0.025350908,-0.010995574
256,1436167056245,0.025045475,-0.064446285,-0.011301007
257,1436167056253,0.022907447,-0.02321288,-0.018020526
258,1436167056306,0.028710667,0.006414085,-0.0125227375
259,1436167056307,0.027488936,-0.015577064,-0.007330383
260,1436167056311,0.022602014,-0.010079277,-0.0125227375
261,1436167056334,0.015882496,0.0027488936,-0.029932396
262,1436167056354,0.014660766,0.02076942,-0.03848451
263,1436167056374,0.024129177,0.035430185,-0.03145956
264,1436167056391,0.025045475,0.034208454,-0.02107485
265,1436167056414,0.007941248,0.014660766,-0.0125227375
266,1436167056432,0.011301007,-0.004886922,-0.014660766
267,1436167056453,0.025961773,-0.008857546,-0.022907447
268,1436167056474,0.027488936,0.011301007,-0.03145956
269,1436167056491,0.025961773,0.027488936,-0.03359759
270,1436167056513,0.022602014,0.04520403,-0.02687807
271,1436167056534,0.025350908,0.043066,-0.004276057
272,1436167056554,0.02443461,-0.017104227,0.008246681
273,1436167056573,0.02107485,-0.09682214,-0.004276057
274,1436167056592,0.0070249503,-0.099265605,-0.021991149
275,1436167056613,0.023823744,-0.010995574,-0.035430185
276,1436167056634,0.03359759,-0.002443461,-0.017104227
277,1436167056655,0.02321288,-0.030848695,0.005192355
278,1436167056673,0.023823744,-0.051618114,0.007941248
279,1436167056693,0.01160644,-0.06627888,-0.0125227375
280,1436167056713,0.004886922,-0.015271631,-0.036957346
281,1436167056733,0.018325957,0.04153884,-0.03634648
282,1436167056755,0.04886922,0.048563786,-0.017715093
283,1436167056773,0.0421497,0.013744468,-0.0009162979
284,1436167056795,0.002443461,-0.014660766,-0.0027488936
285,1436167056813,0.015271631,0.0018325958,-0.013133603
286,1436167056834,0.029626964,-0.013133603,-0.02107485
287,1436167056854,0.040927973,-0.023518313,-0.01740966
288,1436167056871,0.054061573,-0.007330383,-0.00580322
289,1436167056938,0.04734206,-0.003970624,-0.0012217305
290,1436167056939,0.038179077,0.009162978,-0.0012217305
291,1436167056940,0.015577064,-0.015577064,-0.01740966
292,1436167056951,0.02107485,-0.02321288,-0.044593163
293,1436167056973,0.022907447,0.05467244,-0.037873644
294,1436167056993,0.007330383,0.041233405,-0.009162978
295,1436167057011,0.029626964,-0.056199603,0.0018325958
296,1436167057031,0.06536258,-0.15149458,-0.0143553335
297,1436167057051,0.01038471,-0.017715093,-0.028405234
298,1436167057073,-0.007941248,0.09407325,-0.020158553
299,1436167057099,0.03268129,0.016187929,-0.0076358155
300,1436167057112,0.06047566,-0.021380283,-0.004886922
301,1436167057131,0.034513887,0.004886922,-0.009468411
302,1436167057154,0.050396383,0.04795292,-0.017104227
303,1436167057174,0.06078109,0.015577064,-0.0030543262
304,1436167057194,0.04184427,-0.017104227,0.009468411
305,1436167057214,0.04520403,-0.008552114,0.024129177
306,1436167057234,0.071776666,0.0076358155,0.030848695
307,1436167057254,0.05375614,-0.004276057,0.020158553
308,1436167057274,0.029321533,-0.008246681,-0.006414085
309,1436167057294,0.03481932,0.028405234,-0.025961773
310,1436167057314,0.0580322,0.07147124,-0.012217305
311,1436167057333,0.071776666,0.11148291,0.008552114
312,1436167057351,0.07513642,0.10629055,0.009773844
313,1436167057374,0.0693332,0.08460484,-0.02107485
314,1436167057396,0.043676864,0.11453723,-0.04184427
315,1436167057414,-0.016187929,0.12767084,-0.07666359
316,1436167057431,-0.087964594,0.16035213,-0.13439035
317,1436167057479,-0.12003502,0.2452624,-0.25137106
318,1436167057480,-0.22418754,0.30573806,-0.3549127
319,1436167057519,-0.3549127,0.3051272,-0.42638394
320,1436167057520,-0.45998153,0.23732115,-0.5494733
321,1436167057531,-0.59528816,0.17379116,-0.6224717
322,1436167057842,-0.7620544,0.18936823,-0.70371675
323,1436167057845,-0.9483683,0.008552114,-0.8017606
324,1436167057846,-1.0580186,-0.16890424,-0.8503244
325,1436167057847,-1.0644327,-0.2773328,-0.8347474
326,1436167057848,-1.1533136,-0.46303585,-0.8549059
327,1436167057849,-1.0571023,-0.63224554,-0.4810564
328,1436167057850,-0.7675522,-1.0097603,-0.17562376
329,1436167057851,-0.59650993,-0.7284568,-0.03390302
330,1436167057852,-0.34330627,-0.3933972,0.09254608
331,1436167057853,-0.20005837,0.06841691,0.15363261
332,1436167057854,-0.1591304,0.48502702,0.17959438
333,1436167057855,-0.07880162,0.61666846,0.20525073
334,1436167057856,-0.02076942,0.53969944,0.24953845
335,1436167057857,0.04886922,0.5656612,0.21410827
336,1436167057858,0.058948494,0.57879484,0.20097467
337,1436167057859,0.12461651,0.64660084,0.16646078
338,1436167057874,0.039095376,0.61361414,0.08277224
339,1436167057892,-0.033292156,0.67164636,-0.013133603
340,1436167057913,0.07086037,0.754724,-0.059253927
341,1436167057936,0.18906279,0.90469146,0.01038471
342,1436167057956,0.24098633,0.8268061,-0.058948494
343,1436167057976,0.29260445,0.6386596,-0.09896017
344,1436167057996,0.3222314,0.52442783,-0.061086524
345,1436167058016,0.3042109,0.39950588,0.09040806
346,1436167058036,0.32559118,0.23823744,0.25411993
347,1436167058051,0.3323107,0.20586158,0.33261612
348,1436167058074,0.38545597,0.33383787,0.16798794
349,1436167058096,0.39187005,0.5314528,-0.009468411
350,1436167058116,0.45631635,0.627664,-0.18784106
351,1436167058136,0.8790351,0.45845437,-0.042760566
352,1436167058156,1.2409728,0.4392121,0.3109304
353,1436167058176,1.3814718,0.77518797,0.12797627
354,1436167058193,1.251052,1.2263119,-0.0888809
355,1436167058213,-0.15302174,2.0708332,-0.32834008
356,1436167058232,-0.63499445,2.2247713,-0.3839288
357,1436167058256,0.75502944,2.2137756,-0.06383542
358,1436167058276,1.9938642,0.7632761,0.6032294
359,1436167058296,2.4898868,1.7180585,0.63438356
360,1436167058314,2.13925,2.6297748,0.19303341
361,1436167058335,0.9285152,2.4972172,-0.43249258
362,1436167058403,0.73273283,1.5503759,-0.57940567
363,1436167058404,1.3439035,1.8371773,-0.659429
364,1436167058405,1.4196508,2.2107213,-0.4092797
365,1436167058412,0.9056077,2.345417,-0.20219639
366,1436167058433,0.12736541,2.855795,0.071776666
367,1436167058455,-0.364992,3.7143662,0.37843102
368,1436167058472,-0.48197266,3.7082574,0.5317582
369,1436167058493,-0.12705997,2.3554964,0.56199604
