id,attr_time,attr_x,attr_y,attr_z
1,1436164600937,-0.011739243,-0.19033763,0.21278031
2,1436164600957,-0.043504234,-0.12375332,0.2295791
3,1436164600978,-0.070382304,-0.14421731,0.24088012
4,1436164600994,-0.04991832,-0.17140082,0.23110628
5,1436164601017,-0.03159236,-0.13352716,0.2078934
6,1436164601034,-0.042282503,-0.13780323,0.20392278
7,1436164601057,-0.03128693,-0.12955654,0.22683021
8,1436164601074,-0.019069623,-0.14849336,0.24118555
9,1436164601094,-0.01723703,-0.1909485,0.24393445
10,1436164601117,-0.025178276,-0.2217972,0.23171714
11,1436164601138,-0.04655856,-0.17109537,0.21766724
12,1436164601158,-0.04900202,-0.12008813,0.22744109
13,1436164601177,-0.035562985,-0.14757706,0.24026926
14,1436164601194,-0.02304025,-0.17109537,0.24332358
15,1436164601217,-0.029148903,-0.20652556,0.23171714
16,1436164601237,-0.05083462,-0.16926278,0.22805195
17,1436164601257,-0.046863995,-0.16040523,0.23202257
18,1436164601274,-0.029454336,-0.13902494,0.23813123
19,1436164601295,-0.004714288,-0.15551831,0.23293887
20,1436164601313,-0.020596787,-0.18025835,0.23721492
21,1436164601334,-0.04197707,-0.2077473,0.22896825
22,1436164601418,-0.038617313,-0.17201167,0.21705638
23,1436164601419,-0.02884347,-0.10695452,0.22194329
24,1436164601420,-0.034952123,-0.13474889,0.24240728
25,1436164601421,-0.0431988,-0.19583541,0.24607247
26,1436164601434,-0.04869659,-0.20133321,0.22988455
27,1436164601457,-0.04197707,-0.17445514,0.21339118
28,1436164601474,-0.036479283,-0.14543903,0.21308576
29,1436164601496,-0.034952123,-0.14727163,0.22621936
30,1436164601516,-0.0105175115,-0.15246399,0.23599319
31,1436164601534,-0.007768616,-0.17873119,0.24332358
32,1436164601578,-0.019375056,-0.19064306,0.23752037
33,1436164601579,-0.03037063,-0.16895735,0.23935296
34,1436164601597,-0.04289337,-0.15215856,0.23446603
35,1436164601614,-0.02670544,-0.16132154,0.23568776
36,1436164601636,-0.008990347,-0.16040523,0.2350769
37,1436164601657,-0.0013545305,-0.15276942,0.21949984
38,1436164601677,-0.0053251535,-0.11978269,0.22408132
39,1436164601698,-0.021818519,-0.14269014,0.23965839
40,1436164601718,-0.022734817,-0.17628773,0.2237759
41,1436164601737,-0.015404433,-0.13658148,0.21369661
42,1436164601758,-0.016320731,-0.13810866,0.23293887
43,1436164601777,-0.026400007,-0.18422897,0.24576704
44,1436164601800,-0.034341257,-0.19461368,0.25615174
45,1436164601814,-0.03831188,-0.22301891,0.23813123
46,1436164601838,-0.037701014,-0.19552998,0.21247488
47,1436164601856,-0.052972645,-0.16223782,0.20361733
48,1436164601876,-0.04655856,-0.15276942,0.22133243
49,1436164601897,-0.015404433,-0.17567687,0.24851593
50,1436164601918,-0.0105175115,-0.22485152,0.24301815
51,1436164601938,-0.024872843,-0.20652556,0.2332443
52,1436164601958,-0.03128693,-0.16956821,0.2246922
53,1436164601978,-0.025178276,-0.15612918,0.23171714
54,1436164601996,0.0016997904,-0.16773562,0.2341606
55,1436164602016,0.0075030103,-0.15796177,0.23629862
56,1436164602036,-0.017847896,-0.1741497,0.23904753
57,1436164602056,-0.04197707,-0.16529216,0.23629862
58,1436164602080,-0.04625313,-0.16651389,0.2341606
59,1436164602155,-0.03037063,-0.17201167,0.21583465
60,1436164602156,-0.032203227,-0.13322173,0.21400204
61,1436164602157,-0.03250866,-0.14757706,0.221027
62,1436164602158,-0.023956548,-0.15429658,0.23446603
63,1436164602175,-0.02884347,-0.17567687,0.23568776
64,1436164602196,-0.025789142,-0.16681932,0.2237759
65,1436164602215,-0.022734817,-0.1310837,0.21949984
66,1436164602239,-0.011739243,-0.12192072,0.23538233
67,1436164602255,-0.01143381,-0.16071066,0.23385517
68,1436164602275,-0.0105175115,-0.16498673,0.22438675
69,1436164602297,-0.0123501085,-0.12161529,0.221027
70,1436164602328,-0.03739558,-0.10878712,0.22744109
71,1436164602339,-0.03250866,-0.12711307,0.2332443
72,1436164602355,-0.027621739,-0.13749778,0.24057469
73,1436164602377,-0.024872843,-0.19247566,0.23110628
74,1436164602398,-0.02670544,-0.2049984,0.22652479
75,1436164602418,-0.038617313,-0.17873119,0.21216945
76,1436164602438,-0.04289337,-0.12436418,0.21522377
77,1436164602458,-0.02884347,-0.11245231,0.2201107
78,1436164602478,-0.013266403,-0.10970342,0.23385517
79,1436164602498,-0.0044088587,-0.18697788,0.23446603
80,1436164602519,-0.016320731,-0.21232878,0.23477146
81,1436164602537,-0.035868417,-0.1854507,0.22347046
82,1436164602556,-0.0450314,-0.15887807,0.21858354
83,1436164602578,-0.043504234,-0.11153601,0.21888897
84,1436164602598,-0.023956548,-0.099318705,0.22530305
85,1436164602618,-0.01723703,-0.13352716,0.23171714
86,1436164602636,-0.01723703,-0.20011148,0.22744109
87,1436164602657,-0.038922746,-0.17017907,0.21522377
88,1436164602678,-0.044420533,-0.12008813,0.21797267
89,1436164602698,-0.03922818,-0.12802938,0.2246922
90,1436164602718,-0.018153328,-0.14727163,0.24393445
91,1436164602737,-0.008684918,-0.22210263,0.24362901
92,1436164602757,-0.030065197,-0.22790584,0.22621936
93,1436164602776,-0.04655856,-0.16132154,0.21614008
94,1436164602797,-0.051140048,-0.13077827,0.21003142
95,1436164602816,-0.032814093,-0.08068732,0.20880969
96,1436164602836,-0.029454336,-0.13719235,0.2350769
97,1436164602882,-0.014182702,-0.21446681,0.2509594
98,1436164602884,-0.010212079,-0.23584709,0.2472942
99,1436164602902,-0.03159236,-0.18972677,0.22744109
100,1436164602915,-0.04655856,-0.13047284,0.21339118
101,1436164602938,-0.030981496,-0.09809698,0.21522377
102,1436164602955,-0.010822944,-0.086185105,0.23293887
103,1436164602975,-0.0071577504,-0.16345955,0.2500431
104,1436164602998,-0.017542463,-0.21171792,0.24576704
105,1436164603016,-0.045947693,-0.19766802,0.23018998
106,1436164603037,-0.07068774,-0.13658148,0.2201107
107,1436164603057,-0.058775865,-0.1048165,0.2155292
108,1436164603079,-0.02090222,-0.1011513,0.22744109
109,1436164603097,-0.00013279915,-0.15765634,0.24210185
110,1436164603119,0.0035323873,-0.21691027,0.24240728
111,1436164603136,-0.011128377,-0.23248734,0.23080084
112,1436164603158,-0.04044991,-0.17628773,0.21033685
113,1436164603179,-0.055416107,-0.113674045,0.20972599
114,1436164603198,-0.042587936,-0.12344789,0.22408132
115,1436164603219,-0.032814093,-0.1405521,0.23874208
116,1436164603237,-0.012655541,-0.18697788,0.2427127
117,1436164603258,-0.0007436648,-0.19064306,0.23141171
118,1436164603277,-0.0071577504,-0.18453442,0.23293887
119,1436164603300,-0.03739558,-0.20469296,0.23446603
120,1436164603316,-0.062135626,-0.21080162,0.22988455
121,1436164603338,-0.03373039,-0.1487988,0.21827811
122,1436164603359,0.020942047,-0.07854929,0.22133243
123,1436164603378,0.03529738,-0.12589136,0.24759963
124,1436164603399,0.025218107,-0.2602817,0.24057469
125,1436164603418,-0.004714288,-0.23157103,0.22621936
126,1436164603441,-0.058165,-0.16834648,0.23996381
127,1436164603457,-0.064579085,-0.1741497,0.22835737
128,1436164603478,-0.03617385,-0.14360644,0.20819883
129,1436164603497,-0.03831188,-0.12741852,0.21155858
130,1436164603518,-0.04075534,-0.15032595,0.22927368
131,1436164603584,-0.035257556,-0.16315413,0.21766724
132,1436164603678,-0.02884347,-0.14482817,0.23110628
133,1436164603679,-0.018153328,-0.17353883,0.23721492
134,1436164603689,-0.017542463,-0.19614086,0.23354973
135,1436164603690,-0.026400007,-0.18331268,0.20667167
136,1436164603691,-0.03617385,-0.1039002,0.21522377
137,1436164603692,-0.020291355,-0.09992957,0.2332443
138,1436164603693,-0.012044676,-0.12375332,0.2427127
139,1436164603729,-0.029454336,-0.16987364,0.24790508
140,1436164603730,-0.04197707,-0.18361811,0.24332358
141,1436164603737,-0.058165,-0.16681932,0.24454531
142,1436164603756,-0.05663784,-0.18270181,0.22347046
143,1436164603778,-0.02090222,-0.14482817,0.21186402
144,1436164603797,-0.008074053,-0.14391187,0.21766724
145,1436164603819,-0.025483709,-0.16529216,0.21797267
146,1436164603836,-0.049612887,-0.15460202,0.21583465
147,1436164603859,-0.04991832,-0.13352716,0.22988455
148,1436164603878,-0.035868417,-0.16712475,0.24393445
149,1436164603898,-0.02090222,-0.18850504,0.24240728
150,1436164603919,-0.02456741,-0.18514527,0.22805195
151,1436164603940,-0.02884347,-0.18025835,0.21400204
152,1436164603960,-0.03953361,-0.14116298,0.21491835
153,1436164603976,-0.03373039,-0.11336861,0.22866282
154,1436164603998,-0.021818519,-0.1405521,0.24912679
155,1436164604019,-0.026400007,-0.2040821,0.24759963
156,1436164604036,-0.03464669,-0.20866358,0.23629862
157,1436164604059,-0.029759765,-0.1909485,0.2191944
158,1436164604077,-0.024872843,-0.14085755,0.20758796
159,1436164604098,-0.026094574,-0.11978269,0.22347046
160,1436164604118,-0.029148903,-0.1723171,0.23202257
161,1436164604138,-0.023345683,-0.18361811,0.23996381
162,1436164604158,-0.031897794,-0.18606158,0.24210185
163,1436164604177,-0.03739558,-0.19644628,0.22774652
164,1436164604198,-0.031897794,-0.15704548,0.2106423
165,1436164604218,-0.03831188,-0.11245231,0.21736181
166,1436164604238,-0.02670544,-0.13719235,0.23629862
167,1436164604268,-0.016320731,-0.19644628,0.2332443
168,1436164604280,-0.03709015,-0.19278109,0.23080084
169,1436164604302,-0.05663784,-0.16956821,0.21980527
170,1436164604322,-0.04778029,-0.13352716,0.2237759
171,1436164604410,-0.02884347,-0.14299557,0.23018998
172,1436164604411,-0.009906646,-0.16926278,0.2237759
173,1436164604412,-0.007768616,-0.16223782,0.23263344
174,1436164604413,-0.0144881345,-0.1805638,0.22988455
175,1436164604423,-0.026400007,-0.1591835,0.23202257
176,1436164604440,-0.05205635,-0.12925111,0.2341606
177,1436164604458,-0.036784716,-0.14177385,0.23141171
178,1436164604477,-0.008990347,-0.15276942,0.22805195
179,1436164604504,0.0007834956,-0.18758874,0.2191944
180,1436164604528,-0.0144881345,-0.16040523,0.21094772
181,1436164604538,-0.034341257,-0.12925111,0.21614008
182,1436164604558,-0.04044991,-0.1170338,0.23141171
183,1436164604578,-0.025789142,-0.15765634,0.2369095
184,1436164604598,-0.02090222,-0.17873119,0.23446603
185,1436164604620,-0.019069623,-0.17078994,0.23171714
186,1436164604640,-0.01723703,-0.1723171,0.21003142
187,1436164604660,-0.023345683,-0.13169457,0.21278031
188,1436164604680,-0.049612887,-0.11733923,0.232328
189,1436164604698,-0.049612887,-0.17445514,0.24851593
190,1436164604720,-0.045947693,-0.19186479,0.24485074
191,1436164604740,-0.03739558,-0.21080162,0.23446603
192,1436164604760,-0.021207653,-0.17567687,0.22133243
193,1436164604780,-0.022429384,-0.13474889,0.21430749
194,1436164604802,-0.02304025,-0.15307485,0.20453364
195,1436164604820,-0.015099,-0.13688692,0.20728253
196,1436164604840,-0.020291355,-0.12711307,0.21766724
197,1436164604858,-0.027621739,-0.12925111,0.24179642
198,1436164604880,-0.009906646,-0.17750946,0.24607247
199,1436164604899,-0.015404433,-0.20255494,0.23202257
200,1436164604918,-0.027621739,-0.18331268,0.2155292
201,1436164604938,-0.041366205,-0.14421731,0.21247488
202,1436164604959,-0.045642264,-0.110925145,0.22285959
203,1436164604980,-0.028538037,-0.1338326,0.2350769
204,1436164604999,-0.017847896,-0.16834648,0.24546161
205,1436164605018,-0.038617313,-0.21782656,0.23629862
206,1436164605039,-0.04869659,-0.20622012,0.20972599
207,1436164605063,-0.043504234,-0.12375332,0.21400204
208,1436164605131,-0.04167164,-0.09229376,0.23110628
209,1436164605132,-0.015709866,-0.13810866,0.23477146
210,1436164605135,0.00017262995,-0.16498673,0.22713564
211,1436164605139,-0.008684918,-0.1628487,0.20728253
212,1436164605158,-0.04044991,-0.13505432,0.21949984
213,1436164605178,-0.041366205,-0.12558591,0.23477146
214,1436164605198,-0.026400007,-0.13413802,0.2427127
215,1436164605219,-0.024872843,-0.17353883,0.232328
216,1436164605244,-0.034035824,-0.17262253,0.21675093
217,1436164605258,-0.033119526,-0.13933039,0.2106423
218,1436164605278,-0.033119526,-0.12222616,0.22072157
219,1436164605305,-0.027316306,-0.14177385,0.2341606
220,1436164605319,-0.022123951,-0.17537144,0.23996381
221,1436164605338,-0.026400007,-0.20011148,0.23293887
222,1436164605359,-0.037701014,-0.18881047,0.21216945
223,1436164605378,-0.021513086,-0.11336861,0.2078934
224,1436164605400,-0.00929578,-0.11000885,0.22683021
225,1436164605418,-0.015709866,-0.16315413,0.232328
226,1436164605438,-0.030676063,-0.1778149,0.23354973
227,1436164605458,-0.04991832,-0.18758874,0.23385517
228,1436164605479,-0.03953361,-0.1768986,0.23446603
229,1436164605499,-0.024872843,-0.1619324,0.22560848
230,1436164605519,-0.03250866,-0.15002052,0.21827811
231,1436164605541,-0.031897794,-0.14452274,0.22927368
232,1436164605561,-0.051750913,-0.15674004,0.2369095
233,1436164605580,-0.045947693,-0.18881047,0.22896825
234,1436164605600,-0.041366205,-0.1610161,0.2201107
235,1436164605618,-0.023651116,-0.12405875,0.21888897
236,1436164605640,-0.012044676,-0.12619677,0.22774652
237,1436164605661,-0.019985922,-0.15857264,0.23904753
238,1436164605681,-0.014182702,-0.20591469,0.22896825
239,1436164605698,-0.0105175115,-0.17262253,0.22805195
240,1436164605719,-0.04747486,-0.16345955,0.23752037
241,1436164605740,-0.059081297,-0.18881047,0.23599319
242,1436164605760,-0.06152476,-0.14238471,0.22285959
243,1436164605780,-0.04869659,-0.108176254,0.22438675
244,1436164605834,-0.010822944,-0.16223782,0.22805195
245,1436164605835,0.0013943613,-0.21385594,0.22408132
246,1436164605837,-0.016320731,-0.19552998,0.21369661
247,1436164605857,-0.027927171,-0.13474889,0.21614008
248,1436164605877,-0.024261978,-0.12497505,0.24026926
249,1436164605897,-0.031897794,-0.1723171,0.23568776
250,1436164605918,-0.0431988,-0.15704548,0.23568776
251,1436164605942,-0.04900202,-0.11184145,0.21675093
252,1436164605958,-0.04900202,-0.120698996,0.2378258
253,1436164605982,-0.029759765,-0.17384426,0.23141171
254,1436164606002,-0.011739243,-0.14818794,0.21858354
255,1436164606019,-0.008379482,-0.14849336,0.21522377
256,1436164606040,-0.012655541,-0.16071066,0.22072157
257,1436164606061,-0.03739558,-0.16132154,0.23171714
258,1436164606082,-0.042282503,-0.18514527,0.22408132
259,1436164606101,-0.026094574,-0.15490745,0.22591391
260,1436164606119,-0.02090222,-0.15765634,0.21827811
261,1436164606141,-0.03128693,-0.14177385,0.22927368
262,1436164606161,-0.044725966,-0.16804105,0.23110628
263,1436164606182,-0.02884347,-0.17812033,0.21797267
264,1436164606204,-0.035257556,-0.15368572,0.21766724
265,1436164606219,-0.044725966,-0.16987364,0.21888897
266,1436164606241,-0.03250866,-0.15002052,0.2078934
267,1436164606259,-0.015404433,-0.13322173,0.20392278
268,1436164606281,-0.037701014,-0.11184145,0.22866282
269,1436164606306,-0.061219327,-0.16865191,0.2512648
270,1436164606326,-0.0441151,-0.206831,0.23629862
271,1436164606344,-0.036784716,-0.15338027,0.21583465
272,1436164606362,-0.025483709,-0.14574447,0.21278031
273,1436164606381,-0.02090222,-0.15368572,0.20483907
274,1436164606402,-0.034341257,-0.15185311,0.22194329
275,1436164606422,-0.026094574,-0.1591835,0.22316502
276,1436164606439,-0.009906646,-0.1405521,0.22041613
277,1436164606468,-0.013877269,-0.15979436,0.22866282
278,1436164606539,-0.027927171,-0.21904829,0.2332443
279,1436164606540,-0.059997596,-0.21110705,0.23202257
280,1436164606541,-0.08992999,-0.17140082,0.22316502
281,1436164606542,-0.07526923,-0.15674004,0.22316502
282,1436164606559,-0.04625313,-0.12558591,0.22285959
283,1436164606579,-0.016320731,-0.20469296,0.22194329
284,1436164606599,-0.0010491014,-0.25967082,0.21186402
285,1436164606623,-0.06488452,-0.18300724,0.21247488
286,1436164606639,-0.089013696,-0.14849336,0.22652479
287,1436164606662,-0.06366279,-0.13474889,0.23171714
288,1436164606681,-0.02884347,-0.12619677,0.23813123
289,1436164606699,-0.007768616,-0.15399115,0.24118555
290,1436164606721,-0.007463187,-0.18758874,0.23446603
291,1436164606742,-0.031897794,-0.21752113,0.2106423
292,1436164606762,-0.05205635,-0.16132154,0.19353807
293,1436164606781,-0.07526923,-0.06236136,0.20972599
294,1436164606802,-0.05847043,-0.0748841,0.23293887
295,1436164606823,-0.028232604,-0.15399115,0.2509594
296,1436164606842,0.0026160926,-0.21691027,0.23752037
297,1436164606862,-0.0031871274,-0.26730666,0.23141171
298,1436164606880,-0.03464669,-0.26119798,0.2295791
299,1436164606903,-0.074658364,-0.21171792,0.20850426
300,1436164606923,-0.054194376,-0.08526881,0.20819883
301,1436164606940,-0.025178276,-0.07152434,0.22438675
302,1436164606962,-0.016626164,-0.15521288,0.22347046
303,1436164606980,-0.02304025,-0.15185311,0.23263344
304,1436164606999,-0.030676063,-0.20133321,0.24210185
305,1436164607020,-0.056943268,-0.20927446,0.22866282
306,1436164607042,-0.06977144,-0.14849336,0.22347046
307,1436164607063,-0.04991832,-0.091682896,0.22316502
308,1436164607081,-0.025789142,-0.11336861,0.21491835
309,1436164607103,-0.018458761,-0.15612918,0.23263344
310,1436164607121,-0.024261978,-0.16345955,0.23996381
311,1436164607141,-0.037701014,-0.21446681,0.22683021
312,1436164607160,-0.04869659,-0.16651389,0.2069771
313,1436164607183,-0.04778029,-0.1161175,0.20300648
314,1436164607202,-0.027010873,-0.12314245,0.21125315
315,1436164607290,-0.016931597,-0.13933039,0.21736181
316,1436164607291,-0.023651116,-0.15490745,0.24301815
317,1436164607292,-0.047169425,-0.21110705,0.25706804
318,1436164607293,-0.071604036,-0.23096016,0.2512648
319,1436164607323,-0.049307454,-0.1909485,0.22224873
320,1436164607324,-0.012044676,-0.13627607,0.20819883
321,1436164607354,0.004143253,-0.14299557,0.21980527
322,1436164607361,0.0013943613,-0.18881047,0.22652479
323,1436164607394,-0.029148903,-0.2480644,0.23018998
324,1436164607401,-0.059081297,-0.20927446,0.22896825
325,1436164607420,-0.07099317,-0.12314245,0.23477146
326,1436164607443,-0.035257556,-0.1029839,0.23843665
327,1436164607461,0.0038378239,-0.13719235,0.24088012
328,1436164607480,-0.0013545305,-0.218132,0.24088012
329,1436164607500,-0.035257556,-0.19430825,0.19873041
330,1436164607523,-0.044725966,-0.09504265,0.22194329
331,1436164607544,-0.023651116,-0.12222616,0.23049541
332,1436164607563,-0.0105175115,-0.14452274,0.23874208
333,1436164607580,-0.011128377,-0.1610161,0.22194329
334,1436164607603,-0.038617313,-0.16162696,0.21033685
335,1436164607620,-0.06824428,-0.097791545,0.20819883
336,1436164607644,-0.041366205,-0.06663741,0.21797267
337,1436164607664,0.0016997904,-0.09137746,0.2246922
338,1436164607681,0.005670421,-0.12283702,0.2427127
339,1436164607703,-0.043809667,-0.23370907,0.23965839
340,1436164607721,-0.07832355,-0.21416138,0.22774652
341,1436164607742,-0.05572154,-0.17353883,0.23935296
342,1436164607760,-0.02670544,-0.2040821,0.23813123
343,1436164607783,-0.0062414557,-0.19125393,0.2295791
344,1436164607803,0.013000801,-0.17292798,0.22866282
345,1436164607824,0.0007834956,-0.17934206,0.22285959
346,1436164607843,-0.051140048,-0.17078994,0.21491835
347,1436164607863,-0.06244106,-0.14116298,0.21705638
348,1436164607880,-0.063051924,-0.12772393,0.22499762
349,1436164607901,-0.047169425,-0.1170338,0.24423988
350,1436164607921,-0.016931597,-0.18453442,0.23354973
351,1436164607947,-0.0007436648,-0.1619324,0.221027
352,1436164607996,-0.008379482,-0.15612918,0.21614008
353,1436164607997,-0.01876419,-0.15307485,0.21675093
354,1436164608003,-0.015404433,-0.14207928,0.23018998
355,1436164608020,-0.029454336,-0.14177385,0.23293887
356,1436164608043,-0.029759765,-0.14788249,0.22499762
357,1436164608063,-0.03159236,-0.13474889,0.21736181
358,1436164608080,-0.04075534,-0.11764467,0.21491835
359,1436164608101,-0.049307454,-0.13474889,0.22194329
360,1436164608120,-0.029759765,-0.14543903,0.20361733
361,1436164608143,-0.015099,-0.07366237,0.21125315
362,1436164608167,-0.02670544,-0.074273236,0.24179642
363,1436164608182,-0.017847896,-0.21049619,0.24454531
364,1436164608206,0.034075655,-0.272499,0.22988455
365,1436164608224,0.012695365,-0.26639035,0.22560848
366,1436164608244,-0.07954528,-0.19797345,0.21155858
367,1436164608263,-0.08962456,-0.11764467,0.21186402
368,1436164608283,-0.051750913,-0.024487719,0.22835737
369,1436164608304,-0.0068523213,-0.06663741,0.26012236
370,1436164608323,0.032243058,-0.22668411,0.24698877
371,1436164608345,0.019720316,-0.27036098,0.22499762
372,1436164608363,0.0035323873,-0.24501008,0.22499762
373,1436164608385,-0.0144881345,-0.12650222,0.22316502
374,1436164608402,-0.04900202,-0.08649054,0.2472942
375,1436164608424,-0.06824428,-0.1741497,0.25157025
