id,attr_time,attr_x,attr_y,attr_z
1,1436608595916,-4.706402,8.346786,-0.7870938
2,1436608595936,-4.708796,8.359954,-0.7942764
3,1436608595957,-4.69084,8.352173,-0.81043726
4,1436608595977,-4.7201686,8.328829,-0.8074445
5,1436608595997,-4.718373,8.334216,-0.8050503
6,1436608596017,-4.6938324,8.328829,-0.7966706
7,1436608596037,-4.6902413,8.346188,-0.7835025
8,1436608596057,-4.6938324,8.335413,-0.8062474
9,1436608596077,-4.6926355,8.361151,-0.80804306
10,1436608596097,-4.69084,8.355764,-0.8182184
11,1436608596117,-4.7022123,8.346188,-0.801459
12,1436608596137,-4.702811,8.336012,-0.82899237
13,1436608596157,-4.6740804,8.350377,-0.79966336
14,1436608596177,-4.6896424,8.361151,-0.8242039
15,1436608596197,-4.681263,8.367136,-0.82599956
16,1436608596217,-4.6860514,8.365341,-0.78888947
17,1436608596237,-4.6926355,8.340201,-0.7811083
18,1436608596257,-4.7016134,8.309675,-0.78290397
19,1436608596277,-4.7267528,8.333617,-0.7858967
20,1436608596297,-4.747103,8.3390045,-0.7745243
21,1436608596317,-4.7429137,8.32404,-0.78888947
22,1436608596337,-4.7016134,8.341399,-0.81761986
23,1436608596358,-4.6926355,8.34918,-0.81402856
24,1436608596377,-4.6471453,8.368334,-0.8074445
25,1436608596397,-4.646547,8.361151,-0.81043726
26,1436608596417,-4.64535,8.369531,-0.80804306
27,1436608596437,-4.650737,8.364742,-0.79248077
28,1436608596457,-4.6686935,8.34918,-0.79248077
29,1436608596477,-4.708796,8.348581,-0.8002619
30,1436608596497,-4.708796,8.352771,-0.81343
31,1436608596517,-4.6818614,8.358757,-0.8086416
32,1436608596537,-4.646547,8.366538,-0.7870938
33,1436608596557,-4.6471453,8.3868885,-0.801459
34,1436608596578,-4.6645036,8.371924,-0.79008657
35,1436608596597,-4.685453,8.352771,-0.7954735
36,1436608596617,-4.7016134,8.359355,-0.7966706
37,1436608596637,-4.6776714,8.362348,-0.789488
38,1436608596657,-4.661511,8.368932,-0.82121116
39,1436608596677,-4.667496,8.371326,-0.8098387
40,1436608596697,-4.6621094,8.372523,-0.81343
41,1436608596717,-4.663306,8.364143,-0.7954735
42,1436608596737,-4.6902413,8.34918,-0.801459
43,1436608596757,-4.677073,8.371326,-0.8110358
44,1436608596777,-4.6603136,8.368334,-0.83497787
45,1436608596797,-4.642357,8.384495,-0.8242039
46,1436608596817,-4.6459484,8.404246,-0.82121116
47,1436608596838,-4.655525,8.394072,-0.81402856
48,1436608596857,-4.6495395,8.393473,-0.8038532
49,1436608596877,-4.6579194,8.359954,-0.83856916
50,1436608596897,-4.6441526,8.361151,-0.7906851
51,1436608596917,-4.6710877,8.350976,-0.8026561
52,1436608596938,-4.6579194,8.368932,-0.79846627
53,1436608596958,-4.6405616,8.371326,-0.79128367
54,1436608596978,-4.64116,8.359355,-0.80804306
55,1436608596998,-4.6698904,8.389283,-0.8194155
56,1436608597018,-4.6896424,8.377312,-0.81402856
57,1436608597038,-4.6776714,8.388085,-0.8319851
58,1436608597057,-4.6519337,8.389283,-0.81402856
59,1436608597078,-4.631583,8.392874,-0.8283938
60,1436608597098,-4.6022544,8.401853,-0.7978677
61,1436608597118,-4.601057,8.401853,-0.80804306
62,1436608597138,-4.6166196,8.406042,-0.81761986
63,1436608597158,-4.621408,8.380903,-0.79846627
64,1436608597178,-4.6525326,8.373122,-0.81343
65,1436608597198,-4.64116,8.39048,-0.81343
66,1436608597218,-4.642357,8.388085,-0.82240826
67,1436608597238,-4.6244006,8.389283,-0.83378077
68,1436608597258,-4.614824,8.393473,-0.84575176
69,1436608597278,-4.6381674,8.394072,-0.8355764
70,1436608597299,-4.6471453,8.39048,-0.83258367
71,1436608597318,-4.6417584,8.380304,-0.8182184
72,1436608597338,-4.642357,8.3868885,-0.8206126
73,1436608597358,-4.6279917,8.395268,-0.8170213
74,1436608597378,-4.6483426,8.389283,-0.8038532
75,1436608597398,-4.63697,8.364742,-0.80804306
76,1436608597418,-4.629189,8.401254,-0.81522566
77,1436608597438,-4.644751,8.376115,-0.79487497
78,1436608597458,-4.624999,8.371326,-0.81522566
79,1436608597478,-4.631583,8.36175,-0.8098387
80,1436608597498,-4.610634,8.373122,-0.8206126
81,1436608597518,-4.6261964,8.400057,-0.81761986
82,1436608597538,-4.611831,8.413823,-0.82480246
83,1436608597558,-4.6220064,8.389283,-0.82240826
84,1436608597578,-4.611831,8.38629,-0.82599956
85,1436608597598,-4.6016555,8.397662,-0.84096336
86,1436608597618,-4.608838,8.391078,-0.8074445
87,1436608597638,-4.6285906,8.37013,-0.82599956
88,1436608597658,-4.6405616,8.39467,-0.8265981
89,1436608597678,-4.6273932,8.376713,-0.81163436
90,1436608597698,-4.655525,8.383896,-0.8110358
91,1436608597718,-4.669292,8.392874,-0.8182184
92,1436608597738,-4.665102,8.388684,-0.81761986
93,1436608597758,-4.633379,8.392874,-0.8194155
94,1436608597778,-4.59567,8.396465,-0.84216046
95,1436608597798,-4.583699,8.397662,-0.8391677
96,1436608597818,-4.5777135,8.387487,-0.8074445
97,1436608597838,-4.6034513,8.412626,-0.8295909
98,1436608597858,-4.6082397,8.397064,-0.8062474
99,1436608597879,-4.6321816,8.389283,-0.81402856
100,1436608597898,-4.6297874,8.367136,-0.80924016
101,1436608597918,-4.633379,8.3868885,-0.8242039
102,1436608597939,-4.626795,8.400655,-0.83856916
103,1436608597959,-4.619612,8.414422,-0.83138657
104,1436608597978,-4.597466,8.391078,-0.8391677
105,1436608597998,-4.624999,8.397064,-0.8355764
106,1436608598018,-4.630386,8.376713,-0.8230068
107,1436608598038,-4.6232033,8.369531,-0.8062474
108,1436608598059,-4.6285906,8.388684,-0.825401
109,1436608598078,-4.6220064,8.398261,-0.82001406
110,1436608598099,-4.608838,8.391078,-0.8355764
111,1436608598119,-4.5896845,8.375516,-0.8194155
112,1436608598139,-4.6004586,8.406641,-0.8607155
113,1436608598159,-4.594473,8.387487,-0.8355764
114,1436608598179,-4.598663,8.397064,-0.82360536
115,1436608598199,-4.6082397,8.38629,-0.84216046
116,1436608598219,-4.6202106,8.407239,-0.8463503
117,1436608598239,-4.614824,8.401254,-0.8331822
118,1436608598259,-4.621408,8.408437,-0.8062474
119,1436608598279,-4.633379,8.391677,-0.83617496
120,1436608598299,-4.6279917,8.39048,-0.8367735
121,1436608598319,-4.6178164,8.409634,-0.83617496
122,1436608598339,-4.5884876,8.416218,-0.83258367
123,1436608598359,-4.577115,8.415619,-0.81881696
124,1436608598379,-4.5914803,8.398261,-0.82779527
125,1436608598399,-4.6016555,8.383896,-0.81522566
126,1436608598419,-4.6261964,8.389881,-0.83378077
127,1436608598439,-4.6501384,8.392276,-0.8319851
128,1436608598461,-4.666898,8.368932,-0.84455466
129,1436608598479,-4.655525,8.391677,-0.8415619
130,1436608598499,-4.6261964,8.385093,-0.8439561
131,1436608598519,-4.6100354,8.397064,-0.84096336
132,1436608598539,-4.586692,8.3821,-0.842759
133,1436608598559,-4.5753193,8.406641,-0.81402856
134,1436608598579,-4.587889,8.397662,-0.82719666
135,1436608598599,-4.6124296,8.389283,-0.83258367
136,1436608598619,-4.629189,8.383297,-0.81163436
137,1436608598639,-4.642956,8.381501,-0.8379706
138,1436608598660,-4.64535,8.3821,-0.8475474
139,1436608598679,-4.6351743,8.403049,-0.8511387
140,1436608598699,-4.598663,8.403648,-0.83617496
141,1436608598719,-4.6124296,8.401254,-0.8367735
142,1436608598739,-4.6220064,8.380304,-0.8158242
143,1436608598759,-4.643554,8.385692,-0.82240826
144,1436608598779,-4.6561236,8.367735,-0.82240826
145,1436608598799,-4.642357,8.370728,-0.80564886
146,1436608598819,-4.63278,8.39048,-0.82599956
147,1436608598839,-4.6261964,8.388684,-0.81881696
148,1436608598859,-4.624999,8.374319,-0.82779527
149,1436608598879,-4.629189,8.389283,-0.83856916
150,1436608598900,-4.6160207,8.374918,-0.842759
151,1436608598919,-4.63278,8.397064,-0.8146271
152,1436608598939,-4.633379,8.380304,-0.8283938
153,1436608598959,-4.6399627,8.373122,-0.8265981
154,1436608598981,-4.6495395,8.375516,-0.8331822
155,1436608598999,-4.624999,8.397064,-0.8158242
156,1436608599019,-4.622605,8.397662,-0.81163436
157,1436608599039,-4.629189,8.381501,-0.825401
158,1436608599059,-4.633379,8.370728,-0.82121116
159,1436608599079,-4.6279917,8.376115,-0.82779527
160,1436608599100,-4.597466,8.376115,-0.8403648
161,1436608599120,-4.597466,8.401254,-0.8391677
162,1436608599140,-4.5902834,8.383297,-0.8086416
163,1436608599160,-4.6142254,8.383297,-0.8242039
164,1436608599180,-4.6818614,8.379706,-0.8086416
165,1436608599200,-4.6962266,8.352771,-0.8050503
166,1436608599220,-4.7040076,8.356961,-0.80924016
167,1436608599240,-4.670489,8.360553,-0.80205756
168,1436608599260,-4.6561236,8.37013,-0.8146271
169,1436608599280,-4.6244006,8.383896,-0.8182184
170,1436608599300,-4.598663,8.391677,-0.7858967
171,1436608599320,-4.6082397,8.39886,-0.8110358
172,1436608599340,-4.634576,8.391677,-0.8265981
173,1436608599360,-4.655525,8.37372,-0.80086046
174,1436608599380,-4.665102,8.358757,-0.81163436
175,1436608599400,-4.663306,8.362348,-0.8218097
176,1436608599420,-4.647744,8.377911,-0.83018947
177,1436608599440,-4.6136265,8.392874,-0.81642276
178,1436608599460,-4.624999,8.396465,-0.81043726
179,1436608599480,-4.631583,8.372523,-0.81402856
180,1436608599500,-4.654328,8.367735,-0.80086046
181,1436608599520,-4.669292,8.376713,-0.82779527
182,1436608599540,-4.6561236,8.374918,-0.8086416
183,1436608599560,-4.6483426,8.362348,-0.79607207
184,1436608599580,-4.6537294,8.382699,-0.83378077
185,1436608599600,-4.635773,8.359954,-0.81343
186,1436608599620,-4.646547,8.375516,-0.7942764
187,1436608599640,-4.638766,8.391078,-0.81642276
188,1436608599660,-4.620809,8.380903,-0.8283938
189,1436608599680,-4.624999,8.374918,-0.8194155
190,1436608599701,-4.64535,8.384495,-0.80804306
191,1436608599720,-4.630985,8.3629465,-0.8146271
192,1436608599740,-4.646547,8.393473,-0.82121116
193,1436608599760,-4.658518,8.388085,-0.8074445
194,1436608599780,-4.6591167,8.367136,-0.7930793
195,1436608599800,-4.6561236,8.359954,-0.8110358
196,1436608599820,-4.642357,8.401254,-0.8038532
197,1436608599840,-4.6244006,8.39048,-0.80445176
198,1436608599860,-4.614824,8.384495,-0.7858967
199,1436608599880,-4.6381674,8.377911,-0.8026561
200,1436608599900,-4.665102,8.350976,-0.8002619
201,1436608599920,-4.6662993,8.35337,-0.80205756
202,1436608599940,-4.6902413,8.358757,-0.8038532
203,1436608599960,-4.683657,8.365341,-0.81283146
204,1436608599980,-4.675876,8.365939,-0.80684596
205,1436608600000,-4.663905,8.37372,-0.82779527
206,1436608600020,-4.656722,8.371924,-0.8206126
207,1436608600040,-4.618415,8.379107,-0.8206126
208,1436608600060,-4.6160207,8.39048,-0.79487497
209,1436608600080,-4.629189,8.389283,-0.79008657
210,1436608600100,-4.6501384,8.374319,-0.80804306
211,1436608600121,-4.665102,8.355764,-0.7882909
212,1436608600141,-4.6764746,8.364143,-0.8074445
213,1436608600161,-4.661511,8.3821,-0.7978677
214,1436608600181,-4.6501384,8.370728,-0.79128367
215,1436608600201,-4.655525,8.353969,-0.789488
216,1436608600221,-4.653131,8.365939,-0.80445176
217,1436608600241,-4.657321,8.369531,-0.7942764
218,1436608600261,-4.6417584,8.38629,-0.7858967
219,1436608600281,-4.6537294,8.379107,-0.78410107
220,1436608600301,-4.6405616,8.367136,-0.79128367
221,1436608600321,-4.6261964,8.37013,-0.8122329
222,1436608600341,-4.653131,8.371924,-0.80684596
223,1436608600361,-4.6662993,8.36175,-0.78050977
224,1436608600381,-4.674679,8.383297,-0.80086046
225,1436608600401,-4.6525326,8.385093,-0.80445176
226,1436608600421,-4.643554,8.379107,-0.81642276
227,1436608600441,-4.642956,8.3868885,-0.8242039
228,1436608600461,-4.6399627,8.371924,-0.81881696
229,1436608600481,-4.644751,8.377911,-0.79128367
230,1436608600501,-4.659715,8.380903,-0.7846996
231,1436608600521,-4.683657,8.370728,-0.7811083
232,1436608600541,-4.670489,8.364143,-0.80564886
233,1436608600561,-4.6645036,8.365939,-0.80684596
234,1436608600581,-4.6375685,8.379107,-0.81881696
235,1436608600601,-4.6136265,8.384495,-0.8295909
236,1436608600621,-4.621408,8.397662,-0.84575176
237,1436608600641,-4.666898,8.377312,-0.8319851
238,1436608600661,-4.7022123,8.352771,-0.7679402
239,1436608600682,-4.7626657,8.343793,-0.7733272
240,1436608600701,-4.735132,8.351574,-0.7739257
241,1436608600722,-4.6686935,8.413823,-0.8242039
242,1436608600741,-4.5262384,8.439561,-0.83018947
243,1436608600761,-4.4017396,8.446744,-0.8038532
244,1436608600781,-4.3999443,8.475474,-0.7966706
245,1436608600801,-4.3837833,8.4587145,-0.79487497
246,1436608600821,-4.4657845,8.4347725,-0.908001
247,1436608600841,-4.4448357,8.4108305,-0.8487445
248,1436608600861,-4.4687777,8.425795,-0.8822633
249,1436608600882,-4.4436383,8.489241,-0.96785605
250,1436608600901,-4.4753613,8.468291,-0.78410107
251,1436608600921,-4.4699745,8.500014,-0.8451532
252,1436608600941,-4.510676,8.446145,-0.8439561
253,1436608600961,-4.5980644,8.4347725,-0.777517
254,1436608600981,-4.642956,8.353969,-0.79248077
255,1436608601001,-4.7267528,8.321647,-0.7589619
256,1436608601021,-4.823718,8.288726,-0.7715315
257,1436608601041,-4.8440685,8.276755,-0.75357497
258,1436608601061,-4.7979803,8.2995,-0.74878657
259,1436608601081,-4.695628,8.374319,-0.78050977
260,1436608601101,-4.6046486,8.413823,-0.7649474
261,1436608601121,-4.559159,8.432379,-0.7386112
262,1436608601141,-4.559159,8.450933,-0.7751228
263,1436608601162,-4.565144,8.437765,-0.78170687
264,1436608601182,-4.5633483,8.451532,-0.81402856
265,1436608601202,-4.5567646,8.435371,-0.82480246
266,1436608601222,-4.563947,8.416218,-0.8283938
267,1436608601242,-4.5447936,8.44016,-0.8343793
268,1436608601262,-4.565144,8.425795,-0.82779527
269,1436608601282,-4.5280337,8.521563,-0.8002619
270,1436608601302,-4.537012,8.529344,-0.7733272
271,1436608601322,-4.50888,8.4904375,-0.7469909
272,1436608601342,-4.5675383,8.413823,-0.7338228
273,1436608601362,-4.581305,8.286332,-0.7433996
274,1436608601382,-4.6782703,8.217499,-0.74519527
275,1436608601402,-4.734534,8.23366,-0.801459
276,1436608601422,-4.8560395,8.242638,-0.90620536
277,1436608601442,-4.8584337,8.274361,-0.9355343
278,1436608601462,-4.8500543,8.27077,-0.9487024
279,1436608601482,-4.8464627,8.247426,-0.95229375
280,1436608601502,-4.9374423,8.252813,-0.9636662
281,1436608601522,-4.8817773,8.290522,-0.8738836
282,1436608601542,-4.763264,8.323442,-0.7870938
283,1436608601562,-4.654328,8.355764,-0.7685388
284,1436608601582,-4.559159,8.377911,-0.75596917
285,1436608601602,-4.531027,8.356362,-0.7338228
286,1436608601622,-4.460996,8.36175,-0.7649474
287,1436608601642,-4.4861355,8.377911,-0.8206126
288,1436608601662,-4.422689,8.439561,-0.83497787
289,1436608601682,-4.445434,8.436568,-0.89902276
290,1436608601702,-4.4645877,8.444948,-0.961272
291,1436608601723,-4.4304705,8.489241,-0.93373865
292,1436608601742,-4.4460325,8.455123,-0.9032126
293,1436608601762,-4.4382515,8.440758,-0.90500826
294,1436608601782,-4.398747,8.450933,-0.91937345
295,1436608601802,-4.4603977,8.4664955,-0.8924387
296,1436608601822,-4.4400473,8.471883,-0.842759
297,1436608601842,-4.4885297,8.461707,-0.8583213
298,1436608601862,-4.5076833,8.451532,-0.8463503
299,1436608601882,-4.5513773,8.463503,-0.8810662
300,1436608601902,-4.5513773,8.447342,-0.8822633
301,1436608601922,-4.5699325,8.403648,-0.87208796
302,1436608601942,-4.5633483,8.421604,-0.85652566
303,1436608601962,-4.624999,8.359355,-0.8690952
304,1436608601982,-4.572925,8.356362,-0.8355764
305,1436608602002,-4.6160207,8.397662,-0.8218097
306,1436608602022,-4.638766,8.370728,-0.8343793
307,1436608602042,-4.707599,8.345589,-0.8355764
308,1436608602062,-4.7081976,8.365341,-0.8475474
309,1436608602082,-4.733337,8.391078,-0.9056068
310,1436608602102,-4.68665,8.385692,-0.9451111
311,1436608602122,-4.666898,8.415619,-0.96187055
312,1436608602142,-4.656722,8.440758,-0.97862995
313,1436608602162,-4.6495395,8.432977,-0.9636662
314,1436608602183,-4.626795,8.467693,-0.9498995
315,1436608602203,-4.630386,8.48146,-0.908001
316,1436608602223,-4.660912,8.465898,-0.90381116
317,1436608602243,-4.6441526,8.446145,-0.8690952
318,1436608602263,-4.64116,8.441956,-0.8403648
319,1436608602283,-4.6621094,8.41921,-0.8355764
320,1436608602303,-4.662708,8.409035,-0.9020155
321,1436608602323,-4.629189,8.444948,-0.8912416
322,1436608602343,-4.643554,8.437167,-0.8948329
323,1436608602363,-4.6764746,8.418014,-0.86729956
324,1436608602383,-4.730344,8.396465,-0.83856916
325,1436608602403,-4.7321396,8.410232,-0.79487497
326,1436608602423,-4.7949877,8.429984,-0.748188
327,1436608602443,-4.911106,8.441956,-0.7589619
328,1436608602463,-4.9099092,8.422203,-0.74878657
329,1436608602483,-5.0002904,8.318654,-0.7326257
330,1436608602503,-4.9733553,8.302493,-0.712275
331,1436608602523,-4.856638,8.247426,-0.78170687
332,1436608602543,-4.795586,8.189367,-0.8206126
333,1436608602563,-4.7022123,8.186973,-0.87328506
334,1436608602583,-4.6441526,8.183381,-0.92775315
335,1436608602603,-4.5202527,8.219295,-0.9576807
336,1436608602623,-4.4298716,8.272566,-0.90740246
337,1436608602643,-4.408922,8.283937,-0.8499416
338,1436608602663,-4.506486,8.2833395,-0.8403648
339,1436608602683,-4.633379,8.291719,-0.80445176
340,1436608602703,-4.735731,8.352771,-0.7835025
341,1436608602723,-4.831499,8.418612,-0.78529817
342,1436608602743,-4.883573,8.3868885,-0.7673417
343,1436608602763,-4.865018,8.347384,-0.79487497
344,1436608602783,-4.8099513,8.310873,-0.7763199
345,1436608602803,-4.730344,8.265383,-0.8062474
346,1436608602824,-4.5723267,8.289924,-0.79607207
347,1436608602843,-4.530428,8.306085,-0.75118077
348,1436608602863,-4.541202,8.34918,-0.7254431
349,1436608602883,-4.623802,8.3072815,-0.7685388
350,1436608602903,-4.735132,8.372523,-0.7661445
351,1436608602923,-4.875193,8.467693,-0.801459
352,1436608602943,-4.9398365,8.611345,-0.87208796
353,1436608602963,-4.9057193,8.613739,-0.8900445
354,1436608602983,-4.7518916,8.412027,-0.8870517
355,1436608603003,-4.654927,8.280945,-0.78769237
356,1436608603023,-4.6279917,8.23366,-0.7332243
357,1436608603043,-4.624999,8.231265,-0.7188591
358,1436608603063,-4.660912,8.291121,-0.66858083
359,1436608603083,-4.6884456,8.362348,-0.6895301
360,1436608603103,-4.7243586,8.399458,-0.78290397
361,1436608603124,-4.711789,8.396465,-0.8415619
362,1436608603144,-4.7243586,8.351574,-0.92416185
363,1436608603164,-4.7004166,8.327033,-0.99778354
364,1436608603184,-4.618415,8.357559,-0.95947635
365,1436608603204,-4.618415,8.391677,-0.94451255
366,1436608603224,-4.658518,8.419808,-0.83258367
367,1436608603243,-4.659715,8.385093,-0.7344214
368,1436608603264,-4.687248,8.35337,-0.7152678
369,1436608603284,-4.718373,8.297705,-0.7236475
370,1436608603304,-4.663905,8.247426,-0.7541735
371,1436608603324,-4.675876,8.271368,-0.7679402
372,1436608603344,-4.671686,8.322844,-0.8122329
373,1436608603364,-4.6519337,8.334216,-0.8487445
374,1436608603384,-4.635773,8.403648,-0.8948329
375,1436608603404,-4.5992613,8.415619,-0.89184016
376,1436608603424,-4.570531,8.4347725,-0.89603
377,1436608603444,-4.550779,8.465898,-0.8888474
378,1436608603464,-4.5579615,8.479065,-0.90141696
379,1436608603484,-4.5262384,8.473679,-0.88286185
380,1436608603504,-4.5537715,8.433576,-0.83018947
381,1436608603524,-4.595072,8.368932,-0.8523358
382,1436608603544,-4.583101,8.359954,-0.7918822
383,1436608603564,-4.6016555,8.354567,-0.79846627
384,1436608603584,-4.5765166,8.365341,-0.7978677
385,1436608603604,-4.5807066,8.384495,-0.83617496
386,1436608603624,-4.6040497,8.473679,-0.8702923
387,1436608603644,-4.642956,8.509591,-0.87927055
388,1436608603664,-4.6513352,8.491036,-0.9032126
389,1436608603684,-4.6022544,8.443152,-0.92176765
390,1436608603704,-4.565144,8.432379,-0.8948329
391,1436608603724,-4.5418005,8.416218,-0.86849666
392,1436608603744,-4.519056,8.374319,-0.8170213
393,1436608603764,-4.595072,8.3551655,-0.7769185
394,1436608603784,-4.5741224,8.327033,-0.7266402
395,1436608603805,-4.6004586,8.34499,-0.8643068
396,1436608603825,-4.629189,8.385093,-0.88286185
397,1436608603844,-4.5280337,8.400057,-0.8822633
398,1436608603864,-4.4675803,8.3821,-0.9235633
399,1436608603884,-4.4179006,8.438364,-0.9056068
400,1436608603904,-4.3329067,8.476671,-0.82599956
401,1436608603924,-4.2874165,8.494029,-0.7769185
402,1436608603944,-4.3760023,8.508394,-0.7565677
403,1436608603964,-4.4023385,8.482059,-0.6667852
404,1436608603984,-4.5741224,8.462306,-0.75357497
405,1436608604004,-4.595072,8.461707,-0.7009025
406,1436608604024,-4.6800656,8.370728,-0.6877344
407,1436608604044,-4.7901993,8.304289,-0.63087213
408,1436608604064,-4.883573,8.259995,-0.5686229
409,1436608604084,-5.0320134,8.186973,-0.5943606
410,1436608604104,-5.0140567,8.218696,-0.64463884
411,1436608604124,-5.1104236,8.158841,-0.6596026
