id,attr_time,attr_x,attr_y,attr_z
1,1437500851925,0.048482586,9.474455,-1.459266
2,1437500851926,0.045489833,9.465476,-1.4688427
3,1437500851927,0.049081136,9.478046,-1.483208
4,1437500851928,0.032920275,9.498995,-1.4688427
5,1437500851945,0.022146367,9.504382,-1.4586674
6,1437500851967,0.022744916,9.496601,-1.4395138
7,1437500851984,0.022146367,9.500193,-1.4772224
8,1437500852012,0.017956512,9.508572,-1.4694413
9,1437500852024,0.008978256,9.504382,-1.4921862
10,1437500852047,0.025139118,9.498397,-1.4646529
11,1437500852067,0.025737667,9.498995,-1.4395138
12,1437500852086,-0.0077811554,9.502586,-1.448492
13,1437500852107,-0.027533319,9.500193,-1.4293385
14,1437500852124,-0.010773907,9.504981,-1.4341269
15,1437500852147,0.024540568,9.491813,-1.441908
16,1437500852164,0.007182605,9.485827,-1.4401124
17,1437500852184,0.025139118,9.491813,-1.4514848
18,1437500852207,0.020949265,9.505579,-1.4610616
19,1437500852227,0.018555064,9.488221,-1.4676456
20,1437500852247,0.006584055,9.484032,-1.4748282
21,1437500852265,0.012569559,9.48044,-1.4772224
22,1437500852286,0.02932897,9.485229,-1.4754268
23,1437500852307,0.020350715,9.473856,-1.453879
24,1437500852327,-0.0023942017,9.495404,-1.4766239
25,1437500852344,0.017956512,9.4972,-1.453879
26,1437500852364,0.01616086,9.495404,-1.4526819
27,1437500852384,0.015562311,9.484032,-1.4454993
28,1437500852405,0.01436521,9.490616,-1.4431051
29,1437500852425,-0.002992752,9.536704,-1.4425066
30,1437500852445,0.01616086,9.481637,-1.4502877
31,1437500852470,0.019153614,9.511565,-1.4460979
32,1437500852487,0.026934769,9.493608,-1.4532804
33,1437500852505,0.03172317,9.494805,-1.4544775
34,1437500852525,0.040102877,9.498995,-1.4562732
35,1437500852550,0.017956512,9.499594,-1.4700398
36,1437500852573,0.017956512,9.458294,-1.4341269
37,1437500852669,-0.014963761,9.475053,-1.4203602
38,1437500852670,-0.037110128,9.505579,-1.4059949
39,1437500852671,-0.007182605,9.535507,-1.417966
40,1437500852672,-0.035314474,9.598354,-1.3323733
41,1437500852673,-0.0688333,9.572019,-1.3521254
42,1437500852694,-0.06943185,9.55885,-1.2641385
43,1437500852705,0.010773907,9.482835,-1.2593501
44,1437500852725,0.039504327,9.484032,-1.3587095
45,1437500852744,0.09756372,9.462483,-1.4323312
46,1437500852771,0.09995792,9.399037,-1.4161704
47,1437500852785,0.059855044,9.417592,-1.1994951
48,1437500852806,-0.05805939,9.425972,-1.0408791
49,1437500852826,-0.13467385,9.491214,-1.0821792
50,1437500852845,-0.03232172,9.566033,-1.1905168
51,1437500852866,0.08439561,9.562442,-1.3000516
52,1437500852888,0.18375498,9.502586,-1.5131354
53,1437500852907,0.40222588,9.4535055,-1.6011224
54,1437500852927,0.37349546,9.553463,-1.7896658
55,1437500852948,0.30765492,9.558251,-1.882441
56,1437500852966,0.2184709,9.476251,-1.5879543
57,1437500852988,0.1604115,9.45171,-1.2779051
58,1437500853005,0.089184016,9.436746,-1.30484
59,1437500853031,0.08499416,9.460688,-1.2617443
60,1437500853045,0.1328782,9.51336,-1.1737574
61,1437500853065,0.18495208,9.552266,-1.2593501
62,1437500853087,0.22864626,9.534309,-1.3192052
63,1437500853106,0.31543607,9.521142,-1.2844892
64,1437500853126,0.34835634,9.431359,-1.3497312
65,1437500853148,0.38726214,9.415796,-1.3940239
66,1437500853165,0.42197806,9.402629,-1.4167689
67,1437500853187,0.43754035,9.382876,-1.3628993
68,1437500853210,0.4261679,9.35235,-1.3257892
69,1437500853228,0.37588966,9.361329,-1.3844471
70,1437500853247,0.39504328,9.356541,-1.3784616
71,1437500853267,0.47046062,9.324219,-1.5119383
72,1437500853288,0.5434838,9.238028,-1.632247
73,1437500853307,0.62728083,9.120112,-1.644218
74,1437500853334,0.7290344,9.100959,-1.5735891
75,1437500853394,0.5291186,8.846576,-1.2180501
76,1437500853396,0.56802434,8.76996,-0.98940384
77,1437500853398,0.26994625,8.695741,-0.52373165
78,1437500853415,-0.16340427,8.191761,-0.40162733
79,1437500853425,-0.6452374,7.5363483,-0.93972415
80,1437500853447,-0.8451532,7.4693108,-1.7328035
81,1437500853466,-0.6476316,9.734824,-2.2918496
82,1437500853485,-1.3251907,11.279084,0.41299978
83,1437500853507,-3.1501708,8.261193,2.236783
84,1437500853526,-2.6761189,6.6367273,3.2872388
85,1437500853549,-1.1492168,8.996213,1.3395559
86,1437500853579,0.26515785,10.302849,-0.5847838
87,1437500853588,2.2655134,8.97287,0.48003745
88,1437500853606,1.9494787,7.405266,2.4139538
89,1437500853626,2.3145945,11.412561,2.456451
90,1437500853645,-1.7651252,18.355745,2.712032
91,1437500853667,-4.213795,19.474436,0.22505496
92,1437500853687,-5.5000796,15.815498,-0.12030864
93,1437500853708,-6.1369376,14.556148,0.5847838
94,1437500853728,2.822764,19.608511,0.11791443
95,1437500853748,4.122815,19.608511,-5.743091
96,1437500853766,-0.091578215,15.451579,-2.7575219
97,1437500853788,-0.81163436,12.002731,-0.4165911
98,1437500853813,-1.6921021,8.854357,-0.089184016
99,1437500853826,-0.7517793,5.310938,0.2208651
100,1437500853848,0.0011971008,2.3050177,0.44352585
101,1437500853868,0.24181437,0.2220622,0.24959552
102,1437500853888,0.13347675,-0.46507367,0.031124622
103,1437500853908,0.031124622,-0.6039374,-0.051475335
104,1437500853927,0.2693477,-0.5518635,-0.049081136
105,1437500853948,0.3465607,-0.6015432,-0.17238252
106,1437500853967,0.31124622,-0.7553706,-0.3489549
107,1437500853988,0.4261679,-0.7739257,-0.64823014
108,1437500854008,3.570952,-1.1767502,0.13826515
109,1437500854027,7.9541364,-2.4582467,1.9458874
110,1437500854047,3.6403837,-3.9103298,0.39085343
111,1437500854076,-0.12030864,-5.613206,-5.052963
112,1437500854139,-1.4281414,-4.5687356,-1.9309237
113,1437500854141,0.98940384,1.0205284,19.411589
114,1437500854142,1.4688427,11.881226,6.921637
115,1437500854154,1.5442601,19.608511,-19.608511
116,1437500854166,-14.085687,19.608511,-9.67018
117,1437500854190,-7.8092875,14.908694,-1.4161704
118,1437500854207,-15.053543,11.818976,4.276643
119,1437500854226,-19.469648,19.533693,-3.0388405
120,1437500854249,-19.60911,7.3364325,-11.431116
121,1437500854266,-15.726314,3.9731777,-3.176507
122,1437500854286,-5.8382607,2.0697873,8.297705
123,1437500854307,-2.497751,-0.7128736,4.396951
124,1437500854329,-1.525705,1.6172832,-0.013766659
125,1437500854346,-0.15622166,0.18794483,-0.5542577
126,1437500854369,0.7140707,-0.60214174,-1.0067618
127,1437500854389,0.7433996,-0.6194997,-1.01574
128,1437500854408,0.7733272,-0.705691,-0.7314286
129,1437500854427,0.76315176,-0.724246,-0.20410569
130,1437500854446,0.81761986,-0.78290397,0.031124622
131,1437500854466,0.6667852,-0.7380127,-0.32680854
132,1437500854486,0.6619968,-0.7835025,-0.83138657
133,1437500854509,1.389834,-0.89303726,3.7642837
134,1437500854533,1.5316905,-1.1288661,3.50571
135,1437500854548,1.9099745,-1.54845,-1.3311762
136,1437500854566,2.9281087,0.6242881,-7.724293
137,1437500854589,2.3768437,0.08259996,8.5700445
138,1437500854613,0.040102877,1.7423803,3.5416229
139,1437500854628,-2.5552118,6.073491,-11.268311
140,1437500854646,-12.693459,19.58457,-19.608511
141,1437500854670,-19.60911,19.608511,1.7040731
142,1437500854689,-19.60911,-7.9547353,15.218144
143,1437500854710,-16.562489,-0.8583213,3.6565444
144,1437500854728,-15.742475,-3.2956185,-3.6361938
145,1437500854749,-9.467272,3.7301662,1.8501194
146,1437500854766,-5.719149,3.459023,2.3744495
147,1437500854789,-3.6583402,1.5376761,0.90620536
148,1437500854808,-2.0685902,0.41000703,-0.4297592
149,1437500854875,-0.31783026,0.1316811,-2.3247697
150,1437500854876,1.2515689,-0.35673606,-3.0843303
151,1437500854877,1.9470845,-0.90141696,-3.4165258
152,1437500854896,1.4999673,-1.1941081,-2.131438
153,1437500854906,0.95708215,-0.91937345,-0.88525605
154,1437500854926,1.2360066,-0.9804256,-2.532467
155,1437500854947,1.5711949,-1.2791022,-0.94810385
156,1437500854966,2.2906525,-1.3060371,1.021127
157,1437500854988,6.4110737,-0.11911154,9.690532
158,1437500855006,4.0958805,-0.26036942,5.2355204
159,1437500855030,2.0841527,0.4902128,1.2078748
160,1437500855052,0.6434417,1.7088615,1.4957775
161,1437500855067,0.741604,1.0169371,1.3042414
162,1437500855092,-5.305551,10.114903,-5.8400564
163,1437500855110,-19.60911,19.608511,-2.885013
164,1437500855130,-12.186486,19.608511,-6.8402343
165,1437500855152,-14.172477,15.3767605,1.8100165
166,1437500855170,-19.36969,15.428834,6.531981
167,1437500855190,-19.60911,-1.584363,-2.903568
168,1437500855210,-11.349114,1.1306617,0.45370123
169,1437500855230,-6.2099605,4.049194,2.2457612
170,1437500855251,-4.8225207,4.7261543,1.91596
171,1437500855271,-3.2279825,3.5583823,0.53809685
172,1437500855289,-1.3479356,0.88645315,-0.16340427
173,1437500855310,0.04369418,-0.6877344,-0.8319851
174,1437500855331,0.47644615,-0.9127894,-2.3546975
175,1437500855350,0.3274071,-1.6089035,-3.1669302
176,1437500855370,0.5793968,-1.5526398,-2.7036524
177,1437500855391,0.97623575,-1.0444705,-1.9213469
178,1437500855410,1.003769,-0.8948329,-1.3018472
179,1437500855430,0.8367735,-0.75596917,-0.5530606
180,1437500855451,0.66498953,-0.6679823,0.08619126
181,1437500855471,1.6394296,-0.7781156,4.5322237
182,1437500855492,1.7034745,-0.8936358,1.3706805
183,1437500855512,1.797447,0.6015432,-4.770447
184,1437500855529,2.7395654,0.30526072,1.553837
185,1437500855662,5.3504424,4.2173862,17.481863
186,1437500855663,0.88166475,7.050924,-2.8006175
187,1437500855664,-2.3906105,17.20653,-3.4967315
188,1437500855665,5.4821234,19.608511,-19.608511
189,1437500855676,1.5951369,19.608511,-3.0454245
190,1437500855677,-10.414179,15.057135,1.9644425
191,1437500855678,-19.60911,8.472482,3.5140896
192,1437500855707,-15.810709,6.875549,0.090381116
193,1437500855708,-19.35293,-2.7940333,0.7140707
194,1437500855741,-6.054936,-1.1935096,0.9648633
195,1437500855748,-1.2360066,-0.015562311,0.40581718
196,1437500855768,0.074220255,0.11552023,-0.85413146
197,1437500855790,0.40102878,-0.31184477,-0.86131406
198,1437500855809,0.56443304,-0.4333505,-0.5327099
199,1437500855832,0.736217,-0.47644615,-0.5602432
200,1437500855850,0.6769605,-0.5931635,-0.52133745
201,1437500855867,0.6464345,-0.6434417,-0.480636
202,1437500855891,0.6572084,-0.6823475,-0.29209262
203,1437500855911,0.5566519,-0.8074445,-0.29209262
204,1437500855931,0.5979519,-0.93373865,0.3429694
205,1437500855951,1.1234791,-1.1893197,2.5797524
206,1437500855969,1.3263878,-1.1719618,3.1902738
207,1437500855991,0.65062433,0.8948329,-3.9839516
208,1437500856011,1.377863,0.8331822,3.8133647
209,1437500856029,0.46926352,4.577115,-9.111135
210,1437500856049,-0.7260417,2.789245,-0.9540894
211,1437500856070,-19.255966,19.607315,3.1136594
212,1437500856089,-19.60911,19.608511,-15.683218
213,1437500856109,-13.365032,12.54861,-4.8745947
214,1437500856128,-18.2504,4.034828,-0.6913257
215,1437500856151,-19.60911,0.47105917,-2.4941597
216,1437500856174,-17.819445,-3.4733882,6.664859
217,1437500856190,-3.3740287,-0.37469256,1.400608
218,1437500856211,-2.2272062,2.4827871,0.20949265
219,1437500856230,-1.0911574,1.5753847,-0.6314707
220,1437500856250,-0.20350714,-0.47884035,-0.43275195
221,1437500856271,0.45429978,-0.8655039,-1.1318588
222,1437500856357,0.5093664,-1.1665748,-2.3762453
223,1437500856362,0.3728969,-1.4089876,-2.315193
224,1437500856363,0.4890157,-0.8702923,-0.7517793
225,1437500856380,0.5410896,-0.65301853,-0.13587095
226,1437500856381,0.52971715,-0.64583594,-0.10594343
227,1437500856406,0.5201403,-0.7146692,-1.3024458
228,1437500856409,0.9391256,-0.7433996,-0.75956047
229,1437500856434,1.9147629,-0.7134721,4.257489
230,1437500856448,1.5520413,-0.6500258,4.355053
231,1437500856470,0.9331401,-0.4429273,1.1420342
232,1437500856489,0.7457938,0.7182605,0.64942724
233,1437500856536,0.14724341,3.9624038,-6.6959834
234,1437500856537,-5.98311,10.707469,1.2497733
235,1437500856549,-6.037578,19.608511,-7.60997
236,1437500856573,-1.3599066,18.488026,-8.951322
237,1437500856588,-11.662156,15.194202,-1.3467385
238,1437500856613,-16.460735,12.825739,-2.516306
239,1437500856654,-19.479824,3.9947255,-2.006341
240,1437500856655,-15.392921,-1.2503718,3.685275
241,1437500856668,-5.4234653,0.7062895,4.465186
242,1437500856688,-3.3991678,-0.007182605,1.8363527
243,1437500856708,-1.4041992,-1.3192052,0.29328972
244,1437500856729,-0.073621705,-1.5598224,-0.3465607
245,1437500856751,0.4854244,-1.09834,-1.1079168
246,1437500856769,0.5446809,-0.8403648,-1.365892
247,1437500856790,0.49559975,-0.79966336,-1.2683283
248,1437500856812,0.4369418,-0.58298814,-0.65780693
249,1437500856832,0.5315128,-0.6847417,-0.03232172
250,1437500856851,0.98700964,-1.1204864,0.5943606
251,1437500856871,1.7423803,-1.5771804,3.879804
252,1437500856888,1.970428,-1.6502035,5.439626
253,1437500856911,1.1893197,-1.2491747,3.0322564
254,1437500856930,0.46028528,-0.8194155,-0.3226187
255,1437500856951,0.39624038,-0.6973112,0.090979666
256,1437500856971,0.92296475,-0.11671733,-5.2678423
257,1437500856990,-0.6847417,0.8900445,-3.791817
258,1437500857011,-16.93838,19.057247,-14.151527
259,1437500857030,-0.9636662,19.608511,-5.266645
260,1437500857057,9.990405,19.608511,6.630143
261,1437500857134,2.7461493,14.219763,4.144363
262,1437500857135,-2.3822308,13.373412,-3.1310172
263,1437500857136,-7.8823104,11.608287,-5.934029
264,1437500857137,-6.607398,8.630499,-3.2196028
265,1437500857151,-3.8792052,5.382764,-0.1376666
266,1437500857170,-1.2264298,3.0095115,0.59615624
267,1437500857191,-0.023942016,1.0696096,1.021127
268,1437500857209,0.36032736,-0.11312603,0.99419224
269,1437500857229,0.2172738,-0.48722005,0.8230068
270,1437500857251,0.059855044,-0.5626374,-0.3184288
271,1437500857271,0.08619126,-0.5835867,-0.4782418
272,1437500857289,0.20949265,-0.5386954,-0.22266077
273,1437500857312,0.18854338,-0.57400984,-0.3465607
274,1437500857329,0.20231004,-0.6572084,0.16699557
275,1437500857352,0.48961425,-1.3138182,3.767875
276,1437500857372,0.64703304,-1.2090719,2.6821043
277,1437500857392,0.7613561,-1.1318588,0.14903906
278,1437500857412,1.1348516,-1.2372037,-2.2583308
279,1437500857432,1.4867992,-1.2695254,-0.9115923
280,1437500857452,4.9972973,2.3427265,5.884948
281,1437500857472,0.22445641,2.9825768,-3.8325183
282,1437500857493,0.85173726,6.3847375,-5.37199
283,1437500857513,-19.574993,19.608511,-18.883667
284,1437500857531,-7.053917,19.608511,2.4570496
285,1437500857551,-6.1884127,5.751471,10.220248
286,1437500857571,-6.2183404,4.465186,2.0859482
287,1437500857595,-15.6473055,2.5240872,-5.7975593
288,1437500857615,-17.958906,-0.08259996,-4.68246
289,1437500857629,-5.815516,1.7711107,4.3460746
290,1437500857653,-1.4275428,1.4772224,0.5554548
291,1437500857672,-0.3238158,0.07062895,-0.075417355
292,1437500857692,0.1388637,-0.66139823,-0.1604115
293,1437500857711,0.11133038,-0.760159,-0.9900024
294,1437500857731,0.29628247,-0.6075287,-0.89184016
295,1437500857751,0.39863458,-0.4961983,-0.4866215
296,1437500857771,0.46447513,-0.50397944,-0.024540568
297,1437500857793,0.41299978,-0.54049104,0.10594343
298,1437500857870,0.37708676,-0.56323594,-0.5363012
299,1437500857871,0.61052144,-0.7685388,-0.90261406
300,1437500857872,1.2378023,-1.1611878,3.8666358
301,1437500857873,1.3144168,-1.5879543,5.0397944
302,1437500857891,0.93613285,-0.25737667,-0.51475334
303,1437500857916,0.86729956,0.036511578,4.1162314
304,1437500857930,0.9648633,1.122282,-11.378444
305,1437500857950,-2.1428106,0.7272388,-4.56694
306,1437500857972,-14.602835,14.308348,-6.8109055
307,1437500857991,-17.7548,19.608511,-11.646594
308,1437500858011,-7.7626004,17.775751,-0.86610246
309,1437500858031,-5.858013,6.8252707,2.7371712
310,1437500858053,-19.60911,-0.7116765,-4.2874165
311,1437500858070,-14.626777,0.026934769,1.2587515
312,1437500858093,-5.3043537,3.3919852,2.7156234
313,1437500858113,-3.098097,3.769072,-0.0023942017
314,1437500858132,-2.0895395,2.059612,-0.89184016
315,1437500858153,-0.91578215,0.33638534,-0.272939
316,1437500858173,-0.08499416,-0.6889315,-0.11851298
317,1437500858193,0.52253455,-0.7374141,-1.0121487
318,1437500858213,0.44951138,-1.0271125,-2.2840683
319,1437500858232,0.4429273,-1.2880806,-2.4343045
320,1437500858250,0.6075287,-1.1713632,-1.638831
321,1437500858274,0.7344214,-1.021127,-1.079785
322,1437500858293,0.6793547,-0.8643068,-0.8086416
323,1437500858310,0.6769605,-0.74998367,-0.4345476
324,1437500858330,0.43873745,-0.6955156,-0.11552023
325,1437500858350,0.664391,-0.6099229,1.4772224
326,1437500858375,1.8680758,-0.7236475,7.9313917
327,1437500858396,-0.46148238,6.5846534,-10.199898
328,1437500858416,-0.60812724,3.015497,-1.4221559
329,1437500858433,-16.275185,19.546263,-13.929465
330,1437500858450,-18.23843,19.608511,-13.594277
331,1437500858470,-6.945579,16.180614,2.2146366
332,1437500858492,-9.201516,10.989386,3.8115692
333,1437500858511,-18.799273,4.583699,-2.2439656
334,1437500858530,-19.60911,-2.2391772,-3.2770636
335,1437500858623,-9.500193,-0.23582886,4.284424
336,1437500858624,-4.020463,0.46447513,1.9746178
337,1437500858625,-3.6739025,3.1561563,0.17956513
338,1437500858653,-2.4917655,3.3554738,-0.60453594
339,1437500858654,-1.134253,1.0301052,-0.5177461
340,1437500858655,-0.260968,-0.29568392,-0.6404489
341,1437500858672,0.4213795,-0.54408234,-1.3521254
342,1437500858692,0.4985925,-0.7715315,-1.4676456
343,1437500858710,0.6374562,-0.7469909,-1.2785037
344,1437500858730,0.74519527,-0.79726917,-1.2958617
345,1437500858765,0.5482722,-0.9091981,-0.8074445
346,1437500858772,0.5494693,-0.9564836,-0.5255273
347,1437500858793,0.439336,-0.88166475,-0.33399114
348,1437500858815,0.40880993,-0.7517793,-0.077811554
349,1437500858832,0.45130703,-0.6159084,0.23223756
350,1437500858853,3.3782187,-0.2645593,10.224439
351,1437500858873,1.6921021,2.1709423,-2.3762453
352,1437500858893,1.3096284,6.541558,-3.328539
353,1437500858913,15.807118,19.608511,-18.723255
354,1437500858933,-6.5666966,19.608511,-9.258977
355,1437500858953,-6.613982,12.440272,-2.006341
356,1437500858973,-14.441825,13.801974,-2.0614076
357,1437500858994,-19.60911,5.3049526,-6.3703723
358,1437500859014,-19.60911,-4.137779,-3.352481
359,1437500859035,-7.681796,0.9780314,8.058883
360,1437500859050,-3.3794158,-0.10474633,1.5047557
361,1437500859074,-2.0685902,1.0600328,-0.35254622
362,1437500859092,-1.4454993,1.1540052,-0.66020113
363,1437500859112,-0.6440403,0.39683893,-0.49559975
364,1437500859132,0.30286652,-0.63206923,-0.22864626
365,1437500859152,0.3226187,-0.7260417,-0.748188
366,1437500859177,0.4321534,-0.7266402,-0.7116765
367,1437500859194,0.6194997,-0.6805518,-0.24061728
368,1437500859214,0.6362591,-0.64823014,-0.16639702
369,1437500859232,0.64463884,-0.7368156,-0.46208093
370,1437500859252,0.6027403,-0.760159,-0.7080852
371,1437500859274,0.4985925,-0.7098808,-0.32202014
372,1437500859292,0.42916065,-0.5883751,0.16340427
373,1437500859317,0.38965634,-0.59256494,0.28191724
374,1437500859377,0.9163807,0.28431144,2.710835
375,1437500859378,0.46866497,3.9869444,-2.6449943
376,1437500859379,-0.40701428,19.608511,-3.1190462
377,1437500859398,-19.60911,19.608511,-19.455282
378,1437500859411,-17.056892,2.60549,-2.8389246
379,1437500859434,-15.567698,12.057798,6.166865
380,1437500859451,-19.60911,10.941502,3.2704794
381,1437500859472,-19.203293,5.1343656,-4.1659107
382,1437500859494,-9.203311,1.0965444,-0.92057055
383,1437500859513,-3.317765,0.80924016,2.0620062
384,1437500859531,-1.9207484,0.6147113,0.12689269
385,1437500859621,-0.9504981,0.6631939,-0.06344634
386,1437500859622,-0.090381116,-0.44831428,-0.2908955
387,1437500859623,0.55126494,-0.7721301,-0.9283517
388,1437500859624,0.66020113,-0.82480246,-1.2485762
389,1437500859646,0.65541273,-0.7134721,-1.282095
390,1437500859652,0.59735334,-0.7170634,-1.1192893
391,1437500859671,0.5686229,-0.98461545,-1.2018893
392,1437500859693,0.7398083,-0.95947635,-0.43394905
393,1437500859714,0.76195467,-0.7260417,0.27114335
394,1437500859734,0.6955156,-0.6392518,0.19033903
395,1437500859754,1.4281414,-0.7152678,2.5528176
396,1437500859773,1.7393875,-0.84694886,3.405752
397,1437500859794,0.2705448,-0.46926352,9.303867
398,1437500859814,2.4109612,-0.52971715,7.639299
399,1437500859831,0.866701,-0.1388637,-2.1619642
400,1437500859854,9.962274,19.532495,-13.065159
401,1437500859874,-9.491813,17.533339,-4.6698904
402,1437500859893,-3.7912183,4.613028,5.6006365
403,1437500859914,-7.077859,14.233529,7.6949644
